ECG1,ECG2
-0.065,-0.055
-0.055,-0.045
-0.055,-0.045
-0.045,-0.045
-0.035,-0.045
-0.035,-0.035
-0.025,-0.035
-0.025,-0.035
-0.015,-0.025
-0.005,-0.025
0.005,-0.025
0.015,-0.015
0.035,-0.005
0.035,-0.005
0.055,-0.005
0.075,0.005
0.105,0.015
0.115,0.025
0.135,0.035
0.155,0.045
0.165,0.055
0.175,0.055
0.195,0.055
0.205,0.055
0.195,0.065
0.175,0.055
0.125,0.025
0.075,0.005
0.025,-0.005
-0.015,-0.035
-0.055,-0.055
-0.075,-0.075
-0.085,-0.075
-0.105,-0.085
-0.115,-0.095
-0.115,-0.105
-0.105,-0.095
-0.115,-0.095
-0.115,-0.095
-0.105,-0.105
-0.105,-0.095
-0.115,-0.095
-0.105,-0.095
-0.105,-0.105
-0.105,-0.105
-0.105,-0.085
-0.105,-0.095
-0.105,-0.105
-0.095,-0.095
-0.085,-0.095
-0.085,-0.095
-0.095,-0.095
-0.095,-0.095
-0.085,-0.095
-0.095,-0.085
-0.095,-0.105
-0.095,-0.095
-0.105,-0.095
-0.105,-0.095
-0.105,-0.105
-0.095,-0.095
-0.115,-0.105
-0.105,-0.095
-0.105,-0.105
-0.105,-0.095
-0.105,-0.105
-0.105,-0.105
-0.085,-0.105
-0.075,-0.095
-0.065,-0.085
-0.055,-0.085
-0.045,-0.085
-0.035,-0.065
-0.005,-0.065
-0.005,-0.055
-0.015,-0.065
-0.015,-0.065
-0.065,-0.085
-0.075,-0.085
-0.095,-0.095
-0.105,-0.095
-0.115,-0.105
-0.115,-0.115
-0.125,-0.125
-0.115,-0.115
-0.125,-0.115
-0.125,-0.125
-0.125,-0.125
-0.115,-0.115
-0.115,-0.115
-0.115,-0.125
-0.105,-0.125
-0.095,-0.115
-0.165,-0.115
-0.035,-0.115
0.355,-0.115
0.885,-0.045
1.055,-0.005
0.415,-0.105
-0.225,-0.295
-0.395,-0.425
-0.165,-0.375
-0.055,-0.155
-0.065,-0.065
-0.075,-0.055
-0.075,-0.065
-0.075,-0.065
-0.075,-0.065
-0.065,-0.055
-0.075,-0.055
-0.065,-0.065
-0.055,-0.055
-0.045,-0.055
-0.025,-0.045
-0.035,-0.045
-0.025,-0.045
-0.015,-0.035
-0.015,-0.025
0.005,-0.035
0.015,-0.025
0.025,-0.015
0.045,-0.015
0.055,-0.005
0.075,-0.005
0.095,0.015
0.105,0.025
0.125,0.035
0.155,0.045
0.175,0.055
0.195,0.065
0.205,0.055
0.205,0.065
0.215,0.065
0.185,0.055
0.155,0.045
0.115,0.005
0.065,-0.005
0.015,-0.035
-0.035,-0.055
-0.065,-0.085
-0.085,-0.095
-0.105,-0.105
-0.115,-0.115
-0.125,-0.115
-0.115,-0.115
-0.125,-0.115
-0.115,-0.125
-0.115,-0.125
-0.115,-0.125
-0.115,-0.115
-0.115,-0.115
-0.105,-0.125
-0.105,-0.125
-0.105,-0.115
-0.095,-0.125
-0.105,-0.115
-0.095,-0.115
-0.105,-0.115
-0.095,-0.115
-0.085,-0.105
-0.095,-0.105
-0.085,-0.115
-0.095,-0.115
-0.095,-0.115
-0.095,-0.105
-0.105,-0.115
-0.095,-0.125
-0.105,-0.125
-0.105,-0.115
-0.105,-0.115
-0.105,-0.125
-0.105,-0.125
-0.105,-0.115
-0.115,-0.125
-0.115,-0.125
-0.105,-0.125
-0.105,-0.125
-0.105,-0.125
-0.095,-0.125
-0.075,-0.125
-0.055,-0.115
-0.055,-0.105
-0.055,-0.095
-0.035,-0.095
-0.025,-0.085
-0.005,-0.085
-0.005,-0.085
-0.015,-0.085
-0.015,-0.095
-0.065,-0.095
-0.075,-0.115
-0.095,-0.115
-0.105,-0.125
-0.115,-0.125
-0.115,-0.135
-0.115,-0.135
-0.115,-0.135
-0.115,-0.135
-0.115,-0.135
-0.115,-0.145
-0.105,-0.135
-0.105,-0.135
-0.095,-0.135
-0.105,-0.135
-0.115,-0.135
-0.145,-0.125
0.055,-0.135
0.515,-0.105
1.055,-0.045
0.945,-0.045
0.305,-0.195
-0.335,-0.375
-0.275,-0.445
-0.085,-0.265
-0.065,-0.095
-0.075,-0.065
-0.075,-0.065
-0.075,-0.075
-0.075,-0.075
-0.075,-0.075
-0.065,-0.065
-0.075,-0.065
-0.055,-0.065
-0.055,-0.065
-0.035,-0.055
-0.035,-0.055
-0.025,-0.045
-0.025,-0.055
-0.005,-0.035
-0.015,-0.035
0.005,-0.025
0.025,-0.025
0.035,-0.015
0.055,-0.005
0.065,-0.005
0.075,0.005
0.105,0.015
0.125,0.035
0.145,0.045
0.165,0.055
0.185,0.065
0.215,0.065
0.215,0.065
0.225,0.075
0.225,0.075
0.195,0.065
0.145,0.045
0.105,0.015
0.045,-0.015
0.005,-0.045
-0.045,-0.065
-0.075,-0.095
-0.095,-0.095
-0.115,-0.115
-0.115,-0.115
-0.115,-0.115
-0.115,-0.115
-0.115,-0.115
-0.125,-0.125
-0.125,-0.115
-0.115,-0.115
-0.125,-0.115
-0.115,-0.125
-0.115,-0.115
-0.105,-0.115
-0.105,-0.115
-0.105,-0.115
-0.105,-0.115
-0.095,-0.105
-0.105,-0.115
-0.105,-0.115
-0.095,-0.115
-0.095,-0.105
-0.095,-0.105
-0.105,-0.115
-0.105,-0.115
-0.105,-0.115
-0.115,-0.115
-0.115,-0.115
-0.105,-0.115
-0.115,-0.115
-0.115,-0.115
-0.115,-0.115
-0.115,-0.125
-0.115,-0.115
-0.115,-0.125
-0.115,-0.115
-0.115,-0.125
-0.115,-0.115
-0.115,-0.115
-0.095,-0.125
-0.085,-0.115
-0.075,-0.105
-0.075,-0.105
-0.065,-0.095
-0.055,-0.095
-0.015,-0.075
-0.005,-0.075
-0.015,-0.085
-0.015,-0.075
-0.035,-0.085
-0.085,-0.095
-0.095,-0.115
-0.115,-0.115
-0.115,-0.115
-0.125,-0.125
-0.125,-0.135
-0.135,-0.135
-0.135,-0.125
-0.145,-0.125
-0.135,-0.125
-0.135,-0.135
-0.135,-0.115
-0.125,-0.125
-0.125,-0.125
-0.125,-0.125
-0.155,-0.115
-0.125,-0.115
0.165,-0.125
0.725,-0.085
1.105,-0.005
0.645,-0.055
0.005,-0.245
-0.435,-0.415
-0.215,-0.395
-0.105,-0.195
-0.085,-0.075
-0.105,-0.065
-0.105,-0.065
-0.105,-0.065
-0.105,-0.075
-0.105,-0.065
-0.095,-0.065
-0.105,-0.065
-0.095,-0.065
-0.085,-0.065
-0.075,-0.055
-0.075,-0.055
-0.055,-0.055
-0.055,-0.055
-0.045,-0.035
-0.045,-0.025
-0.035,-0.035
-0.015,-0.025
-0.005,-0.015
0.005,-0.005
0.025,-0.005
0.045,-0.005
0.065,0.015
0.075,0.035
0.095,0.045
0.125,0.045
0.145,0.045
0.165,0.065
0.175,0.065
0.175,0.065
0.175,0.075
0.145,0.055
0.095,0.035
0.055,0.005
-0.005,-0.015
-0.045,-0.045
-0.085,-0.075
-0.115,-0.085
-0.135,-0.095
-0.145,-0.105
-0.165,-0.105
-0.165,-0.125
-0.165,-0.125
-0.165,-0.115
-0.165,-0.115
-0.165,-0.125
-0.165,-0.125
-0.165,-0.115
-0.165,-0.125
-0.145,-0.125
-0.145,-0.115
-0.145,-0.115
-0.145,-0.115
-0.145,-0.115
-0.135,-0.115
-0.145,-0.105
-0.135,-0.115
-0.135,-0.115
-0.135,-0.105
-0.135,-0.105
-0.135,-0.105
-0.145,-0.115
-0.145,-0.115
-0.155,-0.115
-0.155,-0.115
-0.155,-0.125
-0.145,-0.115
-0.145,-0.115
-0.155,-0.125
-0.155,-0.125
-0.155,-0.125
-0.165,-0.125
-0.155,-0.125
-0.155,-0.135
-0.155,-0.125
-0.155,-0.115
-0.155,-0.125
-0.155,-0.125
-0.125,-0.125
-0.125,-0.115
-0.115,-0.105
-0.105,-0.105
-0.085,-0.095
-0.075,-0.085
-0.055,-0.085
-0.045,-0.075
-0.055,-0.075
-0.065,-0.085
-0.105,-0.095
-0.115,-0.105
-0.135,-0.105
-0.135,-0.115
-0.155,-0.125
-0.165,-0.135
-0.155,-0.125
-0.165,-0.125
-0.175,-0.135
-0.165,-0.125
-0.165,-0.125
-0.165,-0.125
-0.155,-0.135
-0.155,-0.125
-0.145,-0.125
-0.155,-0.115
-0.205,-0.115
-0.105,-0.125
0.215,-0.115
0.745,-0.075
1.045,0.005
0.425,-0.075
-0.215,-0.275
-0.445,-0.405
-0.225,-0.385
-0.105,-0.185
-0.115,-0.075
-0.135,-0.055
-0.135,-0.065
-0.135,-0.065
-0.125,-0.065
-0.135,-0.065
-0.125,-0.065
-0.115,-0.065
-0.105,-0.055
-0.105,-0.055
-0.095,-0.055
-0.085,-0.055
-0.085,-0.045
-0.075,-0.035
-0.065,-0.035
-0.055,-0.035
-0.045,-0.025
-0.035,-0.025
-0.015,-0.025
0.005,-0.015
0.025,0.005
0.025,0.005
0.055,0.025
0.075,0.025
0.105,0.045
0.125,0.055
0.125,0.055
0.145,0.065
0.155,0.065
0.145,0.055
0.135,0.055
0.105,0.035
0.065,0.025
0.015,-0.005
-0.035,-0.035
-0.075,-0.055
-0.105,-0.065
-0.135,-0.085
-0.155,-0.095
-0.155,-0.105
-0.155,-0.115
-0.165,-0.115
-0.165,-0.115
-0.175,-0.115
-0.165,-0.115
-0.175,-0.115
-0.165,-0.115
-0.155,-0.115
-0.155,-0.115
-0.145,-0.105
-0.155,-0.105
-0.155,-0.105
-0.145,-0.105
-0.155,-0.105
-0.145,-0.105
-0.135,-0.105
-0.135,-0.105
-0.145,-0.095
-0.145,-0.105
-0.145,-0.105
-0.135,-0.105
-0.155,-0.105
-0.145,-0.115
-0.145,-0.115
-0.145,-0.105
-0.145,-0.115
-0.145,-0.115
-0.155,-0.115
-0.145,-0.105
-0.165,-0.115
-0.155,-0.115
-0.155,-0.125
-0.145,-0.115
-0.145,-0.115
-0.145,-0.115
-0.145,-0.115
-0.135,-0.115
-0.135,-0.115
-0.105,-0.105
-0.095,-0.095
-0.095,-0.085
-0.085,-0.085
-0.055,-0.075
-0.045,-0.075
-0.035,-0.065
-0.055,-0.065
-0.065,-0.085
-0.095,-0.085
-0.115,-0.095
-0.125,-0.105
-0.135,-0.115
-0.155,-0.125
-0.155,-0.125
-0.155,-0.125
-0.155,-0.125
-0.155,-0.125
-0.145,-0.115
-0.155,-0.125
-0.145,-0.125
-0.145,-0.125
-0.135,-0.115
-0.145,-0.125
-0.145,-0.115
-0.185,-0.125
-0.045,-0.125
0.315,-0.105
0.835,-0.065
0.965,0.015
0.325,-0.105
-0.315,-0.305
-0.435,-0.415
-0.195,-0.395
-0.085,-0.175
-0.085,-0.065
-0.105,-0.055
-0.105,-0.075
-0.105,-0.075
-0.105,-0.065
-0.115,-0.065
-0.095,-0.075
-0.085,-0.065
-0.085,-0.055
-0.075,-0.055
-0.075,-0.065
-0.075,-0.055
-0.055,-0.055
-0.055,-0.055
-0.045,-0.055
-0.035,-0.045
-0.025,-0.035
-0.015,-0.035
0.005,-0.035
0.025,-0.025
0.035,-0.015
0.045,0.005
0.075,0.005
0.095,0.015
0.115,0.025
0.125,0.025
0.145,0.035
0.155,0.045
0.155,0.045
0.145,0.035
0.155,0.025
0.125,0.025
0.085,0.005
0.045,-0.015
-0.005,-0.045
-0.045,-0.065
-0.085,-0.075
-0.125,-0.095
-0.125,-0.115
-0.135,-0.115
-0.145,-0.115
-0.135,-0.125
-0.135,-0.125
-0.145,-0.125
-0.145,-0.115
-0.155,-0.115
-0.145,-0.125
-0.135,-0.125
-0.135,-0.115
-0.125,-0.115
-0.125,-0.115
-0.125,-0.115
-0.125,-0.115
-0.125,-0.115
-0.125,-0.125
-0.115,-0.115
-0.115,-0.115
-0.115,-0.125
-0.115,-0.125
-0.115,-0.125
-0.125,-0.115
-0.125,-0.115
-0.125,-0.125
-0.125,-0.125
-0.135,-0.125
-0.135,-0.125
-0.135,-0.125
-0.135,-0.125
-0.135,-0.115
-0.145,-0.125
-0.125,-0.135
-0.135,-0.125
-0.135,-0.125
-0.125,-0.125
-0.135,-0.125
-0.115,-0.125
-0.105,-0.115
-0.105,-0.115
-0.085,-0.115
-0.075,-0.105
-0.075,-0.095
-0.045,-0.085
-0.035,-0.095
-0.035,-0.085
-0.035,-0.095
-0.055,-0.105
-0.085,-0.105
-0.115,-0.115
-0.125,-0.115
-0.135,-0.135
-0.145,-0.135
-0.145,-0.135
-0.165,-0.145
-0.155,-0.145
-0.155,-0.145
-0.145,-0.135
-0.135,-0.145
-0.145,-0.145
-0.135,-0.145
-0.135,-0.135
-0.145,-0.135
-0.175,-0.145
-0.115,-0.135
0.185,-0.125
0.705,-0.095
1.035,-0.025
0.505,-0.095
-0.135,-0.275
-0.475,-0.415
-0.235,-0.425
-0.095,-0.215
-0.085,-0.095
-0.095,-0.075
-0.115,-0.085
-0.105,-0.095
-0.105,-0.075
-0.105,-0.085
-0.095,-0.085
-0.085,-0.085
-0.075,-0.075
-0.065,-0.075
-0.075,-0.075
-0.065,-0.075
-0.055,-0.065
-0.065,-0.065
-0.055,-0.055
-0.035,-0.055
-0.025,-0.045
-0.005,-0.035
0.005,-0.035
0.015,-0.035
0.035,-0.015
0.045,-0.015
0.065,-0.005
0.085,0.005
0.105,0.025
0.125,0.025
0.145,0.025
0.155,0.045
0.165,0.055
0.135,0.045
0.145,0.035
0.115,0.025
0.075,0.005
0.025,-0.025
-0.025,-0.055
-0.065,-0.075
-0.095,-0.085
-0.135,-0.105
-0.145,-0.125
-0.155,-0.125
-0.155,-0.125
-0.155,-0.135
-0.155,-0.135
-0.165,-0.135
-0.155,-0.135
-0.165,-0.135
-0.165,-0.135
-0.155,-0.135
-0.145,-0.125
-0.155,-0.135
-0.155,-0.135
-0.145,-0.135
-0.145,-0.135
-0.145,-0.125
-0.145,-0.125
-0.135,-0.125
-0.135,-0.125
-0.135,-0.125
-0.135,-0.125
-0.145,-0.125
-0.135,-0.125
-0.145,-0.115
-0.145,-0.135
-0.145,-0.135
-0.145,-0.125
-0.155,-0.125
-0.145,-0.125
-0.145,-0.135
-0.155,-0.125
-0.155,-0.125
-0.165,-0.125
-0.155,-0.135
-0.155,-0.135
-0.155,-0.125
-0.145,-0.125
-0.155,-0.135
-0.155,-0.125
-0.145,-0.125
-0.135,-0.125
-0.115,-0.125
-0.105,-0.115
-0.095,-0.105
-0.085,-0.095
-0.065,-0.095
-0.055,-0.085
-0.045,-0.085
-0.065,-0.085
-0.065,-0.105
-0.105,-0.095
-0.115,-0.115
-0.145,-0.115
-0.155,-0.135
-0.155,-0.135
-0.155,-0.135
-0.165,-0.145
-0.165,-0.145
-0.155,-0.135
-0.165,-0.135
-0.165,-0.135
-0.165,-0.135
-0.155,-0.135
-0.155,-0.135
-0.155,-0.135
-0.165,-0.145
-0.175,-0.135
0.075,-0.135
0.565,-0.095
1.025,-0.035
0.755,-0.065
0.115,-0.235
-0.465,-0.425
-0.275,-0.435
-0.125,-0.215
-0.105,-0.095
-0.125,-0.065
-0.135,-0.075
-0.125,-0.075
-0.125,-0.075
-0.125,-0.075
-0.115,-0.065
-0.115,-0.065
-0.105,-0.065
-0.095,-0.065
-0.095,-0.055
-0.085,-0.055
-0.085,-0.045
-0.075,-0.045
-0.055,-0.045
-0.045,-0.035
-0.035,-0.025
-0.025,-0.025
-0.015,-0.025
0.005,-0.005
0.015,0.005
0.035,0.005
0.055,0.025
0.085,0.035
0.105,0.045
0.115,0.055
0.135,0.055
0.155,0.075
0.165,0.065
0.165,0.075
0.155,0.065
0.135,0.065
0.095,0.025
0.035,0.005
-0.015,-0.015
-0.055,-0.045
-0.105,-0.065
-0.125,-0.085
-0.145,-0.105
-0.145,-0.105
-0.155,-0.115
-0.165,-0.115
-0.165,-0.125
-0.165,-0.125
-0.175,-0.125
-0.165,-0.125
-0.155,-0.125
-0.155,-0.115
-0.155,-0.115
-0.155,-0.125
-0.155,-0.115
-0.145,-0.105
-0.145,-0.115
-0.145,-0.105
-0.135,-0.115
-0.135,-0.105
-0.135,-0.105
-0.135,-0.105
-0.135,-0.115
-0.135,-0.105
-0.135,-0.105
-0.145,-0.115
-0.135,-0.115
-0.135,-0.115
-0.145,-0.105
-0.145,-0.105
-0.145,-0.115
-0.135,-0.115
-0.135,-0.105
-0.145,-0.115
-0.135,-0.115
-0.135,-0.105
-0.135,-0.105
-0.125,-0.115
-0.135,-0.115
-0.135,-0.115
-0.135,-0.105
-0.135,-0.115
-0.115,-0.115
-0.095,-0.105
-0.085,-0.095
-0.075,-0.085
-0.075,-0.085
-0.055,-0.075
-0.035,-0.065
-0.025,-0.065
-0.025,-0.065
-0.025,-0.065
-0.055,-0.075
-0.085,-0.085
-0.105,-0.095
-0.115,-0.095
-0.125,-0.105
-0.135,-0.115
-0.135,-0.125
-0.135,-0.115
-0.125,-0.105
-0.135,-0.115
-0.135,-0.115
-0.125,-0.105
-0.135,-0.105
-0.125,-0.105
-0.125,-0.105
-0.115,-0.105
-0.165,-0.105
-0.045,-0.105
0.305,-0.085
0.875,-0.035
1.055,0.015
0.415,-0.095
-0.225,-0.305
-0.355,-0.405
-0.135,-0.315
-0.075,-0.115
-0.085,-0.045
-0.095,-0.035
-0.105,-0.045
-0.095,-0.055
-0.085,-0.045
-0.085,-0.035
-0.075,-0.035
-0.075,-0.045
-0.075,-0.035
-0.065,-0.035
-0.065,-0.035
-0.045,-0.025
-0.045,-0.025
-0.025,-0.015
-0.015,-0.005
-0.005,-0.015
0.005,-0.005
0.025,0.005
0.015,0.015
0.035,0.015
0.055,0.025
0.075,0.045
0.105,0.045
0.115,0.055
0.135,0.065
0.155,0.085
0.155,0.095
0.185,0.095
0.195,0.085
0.205,0.095
0.185,0.095
0.155,0.075
0.105,0.055
0.065,0.025
0.015,-0.005
-0.035,-0.025
-0.065,-0.055
-0.075,-0.065
-0.095,-0.075
-0.115,-0.085
-0.115,-0.095
-0.125,-0.095
-0.125,-0.095
-0.125,-0.095
-0.125,-0.105
-0.115,-0.095
-0.115,-0.095
-0.115,-0.095
-0.115,-0.095
-0.105,-0.095
-0.105,-0.095
-0.105,-0.095
-0.105,-0.095
-0.095,-0.095
-0.095,-0.085
-0.095,-0.095
-0.095,-0.095
-0.095,-0.085
-0.105,-0.085
-0.105,-0.095
-0.105,-0.095
-0.105,-0.095
-0.105,-0.085
-0.115,-0.095
-0.115,-0.095
-0.105,-0.095
-0.115,-0.095
-0.115,-0.095
-0.115,-0.105
-0.115,-0.095
-0.115,-0.095
-0.115,-0.095
-0.115,-0.105
-0.115,-0.095
-0.115,-0.095
-0.115,-0.095
-0.115,-0.105
-0.095,-0.095
-0.085,-0.095
-0.065,-0.085
-0.065,-0.075
-0.045,-0.065
-0.045,-0.065
-0.025,-0.055
-0.005,-0.055
-0.005,-0.055
-0.005,-0.055
-0.035,-0.065
-0.065,-0.075
-0.085,-0.095
-0.105,-0.085
-0.115,-0.095
-0.115,-0.105
-0.115,-0.105
-0.115,-0.105
-0.115,-0.115
-0.125,-0.105
-0.115,-0.105
-0.125,-0.105
-0.125,-0.105
-0.105,-0.115
-0.105,-0.105
-0.105,-0.095
-0.125,-0.105
-0.125,-0.105
0.105,-0.115
0.585,-0.065
1.065,0.005
0.775,-0.005
0.135,-0.185
-0.365,-0.355
-0.295,-0.415
-0.095,-0.285
-0.055,-0.095
-0.075,-0.035
-0.085,-0.045
-0.075,-0.055
-0.075,-0.055
-0.075,-0.045
-0.065,-0.045
-0.065,-0.045
-0.055,-0.035
-0.055,-0.035
-0.055,-0.035
-0.045,-0.045
-0.035,-0.025
-0.025,-0.025
-0.015,-0.025
-0.005,-0.025
0.005,-0.015
0.015,-0.005
0.015,-0.005
0.035,-0.005
0.065,0.005
0.065,0.025
0.095,0.025
0.105,0.025
0.135,0.045
0.145,0.065
0.155,0.065
0.185,0.065
0.195,0.075
0.205,0.075
0.195,0.065
0.175,0.065
0.145,0.055
0.085,0.025
0.035,-0.005
0.005,-0.025
-0.035,-0.055
-0.065,-0.065
-0.085,-0.085
-0.095,-0.095
-0.105,-0.095
-0.115,-0.095
-0.125,-0.105
-0.115,-0.105
-0.115,-0.105
-0.105,-0.095
-0.115,-0.105
-0.105,-0.105
-0.105,-0.095
-0.105,-0.095
-0.105,-0.095
-0.095,-0.095
-0.085,-0.085
-0.085,-0.085
-0.085,-0.095
-0.085,-0.095
-0.085,-0.085
-0.095,-0.095
-0.095,-0.095
-0.095,-0.095
-0.085,-0.085
-0.085,-0.095
-0.095,-0.095
-0.105,-0.105
-0.095,-0.095
-0.115,-0.095
-0.105,-0.105
-0.105,-0.105
-0.095,-0.095
-0.095,-0.105
-0.105,-0.105
-0.095,-0.105
-0.105,-0.105
-0.105,-0.105
-0.105,-0.105
-0.095,-0.105
-0.075,-0.095
-0.065,-0.095
-0.055,-0.085
-0.045,-0.085
-0.035,-0.075
-0.035,-0.075
-0.005,-0.065
0.005,-0.065
0.005,-0.065
-0.005,-0.075
-0.035,-0.075
-0.055,-0.095
-0.085,-0.105
-0.095,-0.105
-0.115,-0.115
-0.105,-0.125
-0.105,-0.115
-0.105,-0.125
-0.105,-0.125
-0.115,-0.125
-0.105,-0.115
-0.115,-0.125
-0.115,-0.125
-0.105,-0.125
-0.085,-0.105
-0.095,-0.115
-0.145,-0.115
0.035,-0.125
0.475,-0.095
0.965,-0.025
0.855,-0.005
0.215,-0.175
-0.405,-0.355
-0.275,-0.445
-0.085,-0.295
-0.045,-0.105
-0.055,-0.055
-0.075,-0.065
-0.075,-0.075
-0.065,-0.075
-0.055,-0.065
-0.055,-0.065
-0.055,-0.065
-0.055,-0.065
-0.035,-0.055
-0.045,-0.055
-0.035,-0.055
-0.025,-0.055
-0.015,-0.045
-0.005,-0.045
-0.005,-0.045
0.015,-0.035
0.025,-0.035
0.015,-0.025
0.045,-0.025
0.065,-0.015
0.085,-0.005
0.105,0.005
0.115,0.015
0.135,0.025
0.155,0.035
0.155,0.035
0.165,0.035
0.195,0.035
0.195,0.055
0.195,0.035
0.155,0.025
0.125,0.015
0.085,-0.015
0.025,-0.035
-0.005,-0.065
-0.035,-0.075
-0.065,-0.095
-0.075,-0.105
-0.095,-0.115
-0.095,-0.125
-0.095,-0.115
-0.115,-0.125
-0.115,-0.125
-0.105,-0.125
-0.105,-0.115
-0.105,-0.125
-0.095,-0.125
-0.095,-0.125
-0.085,-0.115
-0.095,-0.115
-0.085,-0.115
-0.085,-0.115
-0.085,-0.115
-0.085,-0.115
-0.085,-0.115
-0.075,-0.115
-0.075,-0.115
-0.085,-0.115
-0.095,-0.115
-0.085,-0.115
-0.085,-0.115
-0.095,-0.115
-0.085,-0.115
-0.095,-0.125
-0.095,-0.115
-0.095,-0.125
-0.105,-0.125
-0.105,-0.125
-0.095,-0.125
-0.095,-0.115
-0.095,-0.115
-0.095,-0.125
-0.095,-0.125
-0.095,-0.125
-0.075,-0.125
-0.055,-0.115
-0.045,-0.105
-0.035,-0.095
-0.035,-0.095
-0.005,-0.085
0.015,-0.075
0.005,-0.085
0.005,-0.085
-0.025,-0.095
-0.045,-0.095
-0.065,-0.115
-0.085,-0.115
-0.095,-0.125
-0.095,-0.125
-0.105,-0.135
-0.095,-0.135
-0.095,-0.135
-0.095,-0.125
-0.085,-0.125
-0.105,-0.125
-0.095,-0.135
-0.085,-0.125
-0.095,-0.125
-0.085,-0.135
-0.125,-0.125
-0.075,-0.115
0.215,-0.125
0.715,-0.095
1.065,-0.005
0.555,-0.065
-0.085,-0.265
-0.405,-0.405
-0.175,-0.425
-0.035,-0.205
-0.035,-0.075
-0.055,-0.065
-0.065,-0.065
-0.045,-0.065
-0.065,-0.065
-0.045,-0.075
-0.045,-0.065
-0.045,-0.065
-0.025,-0.065
-0.025,-0.065
-0.025,-0.055
-0.015,-0.055
-0.015,-0.055
-0.005,-0.055
0.015,-0.045
0.015,-0.035
0.025,-0.035
0.045,-0.025
0.045,-0.025
0.065,-0.015
0.075,-0.005
0.095,-0.005
0.115,0.005
0.135,0.025
0.155,0.025
0.175,0.045
0.185,0.045
0.195,0.065
0.205,0.065
0.205,0.065
0.195,0.055
0.185,0.045
0.145,0.025
0.105,0.005
0.045,-0.015
0.015,-0.035
-0.015,-0.065
-0.065,-0.075
-0.075,-0.095
-0.085,-0.105
-0.095,-0.095
-0.095,-0.105
-0.105,-0.115
-0.095,-0.115
-0.095,-0.105
-0.105,-0.105
-0.095,-0.115
-0.085,-0.115
-0.085,-0.105
-0.075,-0.105
-0.075,-0.115
-0.075,-0.105
-0.075,-0.105
-0.085,-0.105
-0.075,-0.105
-0.065,-0.105
-0.065,-0.095
-0.065,-0.105
-0.065,-0.115
-0.065,-0.105
-0.075,-0.105
-0.085,-0.105
-0.085,-0.115
-0.085,-0.105
-0.075,-0.105
-0.075,-0.105
-0.085,-0.115
-0.085,-0.115
-0.085,-0.105
-0.095,-0.105
-0.085,-0.115
-0.095,-0.105
-0.085,-0.105
-0.085,-0.105
-0.075,-0.115
-0.065,-0.105
-0.045,-0.095
-0.045,-0.085
-0.035,-0.085
-0.025,-0.075
-0.005,-0.065
0.025,-0.065
0.015,-0.075
0.005,-0.065
-0.015,-0.075
-0.055,-0.085
-0.065,-0.105
-0.085,-0.105
-0.095,-0.105
-0.095,-0.115
-0.105,-0.125
-0.105,-0.125
-0.105,-0.115
-0.115,-0.115
-0.105,-0.125
-0.105,-0.125
-0.105,-0.115
-0.095,-0.125
-0.095,-0.125
-0.095,-0.115
-0.155,-0.115
-0.025,-0.125
0.345,-0.105
0.895,-0.055
1.105,-0.005
0.465,-0.105
-0.175,-0.325
-0.375,-0.425
-0.155,-0.325
-0.065,-0.145
-0.055,-0.065
-0.075,-0.055
-0.075,-0.055
-0.065,-0.055
-0.075,-0.065
-0.075,-0.055
-0.065,-0.045
-0.075,-0.055
-0.065,-0.055
-0.055,-0.045
-0.045,-0.045
-0.035,-0.045
-0.035,-0.035
-0.015,-0.035
-0.015,-0.025
0.005,-0.025
0.015,-0.025
0.035,-0.015
0.045,-0.005
0.065,0.005
0.075,0.005
0.105,0.035
0.105,0.035
0.135,0.045
0.165,0.065
0.175,0.075
0.195,0.075
0.205,0.075
0.195,0.065
0.195,0.075
0.165,0.065
0.125,0.035
0.085,0.005
0.035,-0.015
-0.015,-0.035
-0.055,-0.065
-0.085,-0.085
-0.105,-0.095
-0.125,-0.105
-0.135,-0.115
-0.135,-0.115
-0.125,-0.115
-0.125,-0.115
-0.135,-0.115
-0.125,-0.125
-0.135,-0.115
-0.125,-0.115
-0.135,-0.115
-0.125,-0.125
-0.115,-0.115
-0.125,-0.115
-0.115,-0.115
-0.115,-0.115
-0.105,-0.115
-0.125,-0.115
-0.115,-0.115
-0.115,-0.115
-0.105,-0.115
-0.105,-0.105
-0.115,-0.115
-0.115,-0.115
-0.115,-0.105
-0.135,-0.115
-0.125,-0.115
-0.125,-0.125
-0.125,-0.115
-0.125,-0.115
-0.135,-0.125
-0.125,-0.125
-0.125,-0.115
-0.135,-0.115
-0.135,-0.125
-0.125,-0.125
-0.115,-0.115
-0.095,-0.115
-0.085,-0.115
-0.075,-0.105
-0.065,-0.095
-0.075,-0.085
-0.055,-0.085
-0.015,-0.085
-0.015,-0.075
-0.035,-0.085
-0.045,-0.095
-0.085,-0.095
-0.095,-0.105
-0.115,-0.115
-0.135,-0.125
-0.135,-0.135
-0.135,-0.125
-0.135,-0.135
-0.145,-0.125
-0.145,-0.135
-0.135,-0.125
-0.145,-0.125
-0.145,-0.135
-0.145,-0.125
-0.135,-0.125
-0.125,-0.125
-0.135,-0.125
-0.175,-0.125
-0.015,-0.135
0.385,-0.095
0.905,-0.045
1.035,-0.015
0.395,-0.125
-0.245,-0.325
-0.365,-0.445
-0.155,-0.325
-0.085,-0.135
-0.085,-0.055
-0.115,-0.065
-0.115,-0.075
-0.105,-0.075
-0.105,-0.065
-0.085,-0.065
-0.095,-0.065
-0.085,-0.055
-0.085,-0.055
-0.085,-0.055
-0.065,-0.055
-0.065,-0.045
-0.055,-0.035
-0.035,-0.035
-0.035,-0.035
-0.025,-0.025
-0.015,-0.015
-0.005,-0.015
0.015,-0.015
0.035,0.005
0.045,0.015
0.065,0.015
0.085,0.025
0.115,0.045
0.135,0.045
0.135,0.065
0.165,0.065
0.175,0.075
0.185,0.085
0.175,0.065
0.155,0.065
0.115,0.045
0.055,0.015
0.005,-0.015
-0.025,-0.035
-0.065,-0.055
-0.095,-0.075
-0.115,-0.095
-0.135,-0.095
-0.135,-0.105
-0.145,-0.115
-0.145,-0.115
-0.145,-0.115
-0.135,-0.115
-0.135,-0.115
-0.145,-0.115
-0.135,-0.115
-0.135,-0.105
-0.145,-0.105
-0.135,-0.115
-0.125,-0.115
-0.115,-0.105
-0.115,-0.105
-0.115,-0.115
-0.125,-0.105
-0.115,-0.105
-0.125,-0.105
-0.115,-0.105
-0.115,-0.105
-0.115,-0.105
-0.125,-0.105
-0.125,-0.105
-0.125,-0.115
-0.125,-0.105
-0.135,-0.115
-0.135,-0.115
-0.125,-0.115
-0.125,-0.115
-0.135,-0.115
-0.125,-0.115
-0.135,-0.115
-0.125,-0.115
-0.135,-0.115
-0.135,-0.115
-0.125,-0.115
-0.105,-0.115
-0.085,-0.105
-0.085,-0.095
-0.075,-0.095
-0.065,-0.085
-0.055,-0.075
-0.025,-0.075
-0.015,-0.075
-0.035,-0.065
-0.035,-0.075
-0.075,-0.085
-0.095,-0.105
-0.115,-0.105
-0.125,-0.105
-0.145,-0.115
-0.135,-0.125
-0.135,-0.125
-0.135,-0.125
-0.145,-0.125
-0.145,-0.125
-0.135,-0.125
-0.145,-0.125
-0.145,-0.125
-0.135,-0.125
-0.125,-0.115
-0.125,-0.115
-0.185,-0.115
-0.055,-0.125
0.305,-0.105
0.865,-0.055
1.025,-0.005
0.385,-0.115
-0.255,-0.325
-0.355,-0.435
-0.145,-0.315
-0.075,-0.135
-0.085,-0.065
-0.105,-0.055
-0.115,-0.075
-0.105,-0.075
-0.095,-0.075
-0.095,-0.065
-0.085,-0.065
-0.085,-0.065
-0.075,-0.055
-0.075,-0.055
-0.075,-0.055
-0.065,-0.055
-0.055,-0.045
-0.035,-0.045
-0.035,-0.045
-0.025,-0.045
-0.015,-0.025
-0.005,-0.025
0.005,-0.015
0.025,-0.015
0.045,0.005
0.065,0.005
0.075,0.015
0.105,0.025
0.125,0.035
0.125,0.045
0.145,0.045
0.155,0.045
0.165,0.055
0.175,0.045
0.145,0.035
0.105,0.015
0.065,0.005
0.005,-0.025
-0.025,-0.055
-0.065,-0.075
-0.085,-0.085
-0.105,-0.105
-0.125,-0.115
-0.135,-0.125
-0.135,-0.115
-0.155,-0.125
-0.145,-0.135
-0.135,-0.125
-0.135,-0.125
-0.135,-0.125
-0.135,-0.125
-0.135,-0.125
-0.125,-0.125
-0.135,-0.125
-0.135,-0.125
-0.125,-0.125
-0.115,-0.125
-0.115,-0.125
-0.115,-0.125
-0.125,-0.125
-0.115,-0.115
-0.135,-0.125
-0.125,-0.125
-0.125,-0.135
-0.115,-0.125
-0.115,-0.125
-0.135,-0.125
-0.135,-0.125
-0.125,-0.125
-0.145,-0.135
-0.135,-0.135
-0.135,-0.135
-0.135,-0.125
-0.135,-0.125
-0.135,-0.135
-0.135,-0.145
-0.135,-0.125
-0.125,-0.135
-0.105,-0.135
-0.085,-0.125
-0.075,-0.105
-0.075,-0.105
-0.065,-0.095
-0.045,-0.105
-0.025,-0.085
-0.035,-0.085
-0.045,-0.095
-0.065,-0.105
-0.095,-0.105
-0.105,-0.115
-0.125,-0.125
-0.145,-0.135
-0.135,-0.135
-0.155,-0.145
-0.155,-0.145
-0.145,-0.145
-0.145,-0.145
-0.145,-0.145
-0.145,-0.145
-0.145,-0.145
-0.135,-0.145
-0.145,-0.135
-0.145,-0.145
-0.185,-0.145
-0.075,-0.135
0.255,-0.135
0.775,-0.105
0.985,-0.015
0.365,-0.095
-0.275,-0.295
-0.445,-0.435
-0.205,-0.425
-0.085,-0.195
-0.085,-0.105
-0.105,-0.085
-0.115,-0.095
-0.105,-0.085
-0.125,-0.095
-0.105,-0.095
-0.105,-0.095
-0.095,-0.085
-0.085,-0.085
-0.085,-0.085
-0.085,-0.085
-0.075,-0.075
-0.075,-0.075
-0.065,-0.075
-0.055,-0.075
-0.035,-0.065
-0.025,-0.055
-0.025,-0.065
-0.005,-0.055
0.005,-0.045
0.015,-0.035
0.035,-0.025
0.055,-0.025
0.075,-0.005
0.095,-0.005
0.105,0.005
0.115,0.005
0.135,0.015
0.135,0.015
0.135,0.015
0.135,0.015
0.115,0.005
0.075,-0.015
0.025,-0.035
-0.015,-0.065
-0.065,-0.085
-0.095,-0.095
-0.125,-0.115
-0.145,-0.125
-0.145,-0.135
-0.145,-0.135
-0.155,-0.135
-0.155,-0.145
-0.155,-0.145
-0.155,-0.135
-0.165,-0.145
-0.155,-0.145
-0.145,-0.135
-0.155,-0.135
-0.135,-0.135
-0.145,-0.135
-0.135,-0.135
-0.135,-0.125
-0.145,-0.135
-0.145,-0.135
-0.135,-0.135
-0.135,-0.125
-0.125,-0.125
-0.145,-0.135
-0.145,-0.135
-0.135,-0.125
-0.155,-0.125
-0.145,-0.135
-0.145,-0.135
-0.145,-0.125
-0.145,-0.125
-0.155,-0.135
-0.155,-0.135
-0.145,-0.125
-0.165,-0.135
-0.155,-0.145
-0.155,-0.135
-0.155,-0.125
-0.135,-0.135
-0.125,-0.125
-0.105,-0.115
-0.095,-0.105
-0.095,-0.105
-0.075,-0.095
-0.055,-0.095
-0.045,-0.085
-0.055,-0.095
-0.065,-0.105
-0.105,-0.105
-0.135,-0.115
-0.155,-0.125
-0.155,-0.135
-0.165,-0.135
-0.165,-0.145
-0.165,-0.145
-0.165,-0.145
-0.165,-0.135
-0.175,-0.145
-0.175,-0.145
-0.175,-0.145
-0.165,-0.135
-0.155,-0.135
-0.155,-0.135
-0.175,-0.135
-0.195,-0.135
0.015,-0.135
0.495,-0.105
0.955,-0.045
0.745,-0.035
0.105,-0.205
-0.485,-0.375
-0.335,-0.445
-0.135,-0.285
-0.115,-0.125
-0.125,-0.075
-0.125,-0.075
-0.125,-0.075
-0.115,-0.085
-0.115,-0.085
-0.115,-0.075
-0.105,-0.075
-0.105,-0.065
-0.105,-0.075
-0.095,-0.065
-0.075,-0.055
-0.075,-0.065
-0.075,-0.055
-0.065,-0.055
-0.045,-0.045
-0.045,-0.045
-0.025,-0.045
-0.015,-0.035
0.005,-0.015
0.025,-0.015
0.035,-0.015
0.055,-0.005
0.075,0.015
0.085,0.005
0.105,0.025
0.125,0.025
0.145,0.045
0.145,0.045
0.145,0.045
0.145,0.045
0.125,0.045
0.075,0.025
0.035,-0.005
-0.015,-0.035
-0.055,-0.045
-0.085,-0.065
-0.115,-0.085
-0.135,-0.105
-0.135,-0.105
-0.155,-0.115
-0.155,-0.115
-0.155,-0.125
-0.155,-0.115
-0.155,-0.115
-0.145,-0.115
-0.145,-0.115
-0.145,-0.115
-0.145,-0.105
-0.145,-0.105
-0.135,-0.115
-0.125,-0.105
-0.125,-0.105
-0.125,-0.105
-0.135,-0.105
-0.125,-0.105
-0.125,-0.105
-0.125,-0.105
-0.115,-0.105
-0.115,-0.095
-0.125,-0.095
-0.125,-0.105
-0.125,-0.105
-0.125,-0.095
-0.135,-0.105
-0.135,-0.105
-0.135,-0.105
-0.135,-0.105
-0.125,-0.105
-0.125,-0.105
-0.135,-0.105
-0.125,-0.095
-0.145,-0.105
-0.125,-0.105
-0.105,-0.105
-0.085,-0.095
-0.075,-0.085
-0.075,-0.075
-0.075,-0.075
-0.055,-0.065
-0.035,-0.065
-0.025,-0.055
-0.025,-0.065
-0.025,-0.055
-0.055,-0.065
-0.085,-0.075
-0.105,-0.095
-0.115,-0.095
-0.135,-0.105
-0.135,-0.105
-0.135,-0.115
-0.125,-0.105
-0.135,-0.105
-0.135,-0.105
-0.135,-0.115
-0.135,-0.105
-0.145,-0.105
-0.135,-0.105
-0.125,-0.105
-0.115,-0.105
-0.155,-0.105
-0.125,-0.095
0.125,-0.105
0.605,-0.065
1.085,0.005
0.755,-0.035
0.115,-0.205
-0.445,-0.375
-0.255,-0.395
-0.095,-0.205
-0.075,-0.065
-0.095,-0.035
-0.095,-0.045
-0.105,-0.045
-0.095,-0.055
-0.095,-0.045
-0.085,-0.035
-0.075,-0.035
-0.085,-0.035
-0.065,-0.035
-0.055,-0.025
-0.065,-0.025
-0.045,-0.025
-0.035,-0.015
-0.025,-0.015
-0.015,-0.005
-0.015,-0.015
0.005,0.005
0.025,0.005
0.025,0.015
0.045,0.015
0.065,0.035
0.085,0.045
0.115,0.065
0.135,0.065
0.155,0.075
0.175,0.095
0.175,0.095
0.195,0.095
0.205,0.105
0.195,0.105
0.165,0.085
0.125,0.065
0.065,0.035
0.025,0.005
-0.035,-0.015
-0.055,-0.045
-0.085,-0.065
-0.105,-0.075
-0.115,-0.085
-0.125,-0.095
-0.125,-0.095
-0.135,-0.085
-0.145,-0.095
-0.135,-0.095
-0.125,-0.095
-0.125,-0.095
-0.125,-0.085
-0.125,-0.095
-0.115,-0.095
-0.125,-0.085
-0.115,-0.095
-0.105,-0.095
-0.095,-0.085
-0.095,-0.085
-0.095,-0.085
-0.095,-0.085
-0.075,-0.075
-0.075,-0.085
-0.035,-0.075
0.015,-0.055
0.125,-0.025
0.405,0.025
0.595,0.115
0.745,0.165
0.875,0.155
0.975,0.105
1.235,0.055
1.345,0.075
1.215,0.035
0.975,-0.135
0.735,-0.295
0.695,-0.395
0.295,-0.285
-0.085,-0.155
-0.275,-0.085
-0.305,-0.075
-0.295,-0.065
-0.295,-0.065
-0.305,-0.065
-0.305,-0.055
-0.285,-0.045
-0.285,-0.045
-0.295,-0.045
-0.295,-0.055
-0.315,-0.045
-0.355,-0.055
-0.385,-0.065
-0.415,-0.075
-0.435,-0.075
-0.455,-0.075
-0.485,-0.085
-0.495,-0.085
-0.525,-0.075
-0.545,-0.065
-0.575,-0.065
-0.605,-0.065
-0.625,-0.055
-0.635,-0.045
-0.625,-0.035
-0.605,-0.035
-0.555,-0.015
-0.505,0.005
-0.435,0.005
-0.375,0.005
-0.305,0.015
-0.245,0.005
-0.215,-0.005
-0.175,-0.025
-0.145,-0.035
-0.135,-0.055
-0.125,-0.075
-0.135,-0.085
-0.145,-0.095
-0.135,-0.095
-0.145,-0.095
-0.145,-0.115
-0.145,-0.105
-0.135,-0.105
-0.125,-0.105
-0.135,-0.115
-0.125,-0.105
-0.115,-0.095
-0.125,-0.095
-0.115,-0.105
-0.115,-0.095
-0.105,-0.095
-0.095,-0.095
-0.105,-0.105
-0.105,-0.095
-0.105,-0.095
-0.115,-0.085
-0.105,-0.105
-0.095,-0.105
-0.105,-0.095
-0.095,-0.105
-0.105,-0.105
-0.105,-0.095
-0.095,-0.095
-0.105,-0.095
-0.105,-0.105
-0.095,-0.095
-0.105,-0.095
-0.095,-0.095
-0.095,-0.105
-0.095,-0.095
-0.095,-0.095
-0.105,-0.095
-0.095,-0.105
-0.095,-0.095
-0.095,-0.095
-0.095,-0.095
-0.095,-0.095
-0.085,-0.095
-0.095,-0.085
-0.095,-0.095
-0.085,-0.095
-0.085,-0.095
-0.085,-0.095
-0.085,-0.105
-0.085,-0.095
-0.075,-0.085
-0.095,-0.095
-0.085,-0.095
-0.085,-0.095
-0.075,-0.085
-0.075,-0.095
-0.075,-0.095
-0.075,-0.095
-0.075,-0.085
-0.065,-0.085
-0.085,-0.085
-0.075,-0.085
-0.065,-0.085
-0.075,-0.085
-0.065,-0.085
-0.075,-0.095
-0.065,-0.085
-0.075,-0.085
-0.085,-0.085
-0.075,-0.095
-0.065,-0.085
-0.075,-0.085
-0.075,-0.095
-0.065,-0.095
-0.065,-0.085
-0.065,-0.085
-0.075,-0.085
-0.055,-0.095
-0.065,-0.085
-0.045,-0.085
-0.035,-0.085
-0.025,-0.075
-0.005,-0.065
-0.025,-0.055
0.005,-0.055
0.035,-0.045
0.045,-0.035
0.055,-0.045
0.035,-0.055
0.005,-0.055
-0.025,-0.065
-0.065,-0.065
-0.065,-0.085
-0.065,-0.095
-0.075,-0.095
-0.075,-0.105
-0.085,-0.105
-0.085,-0.105
-0.075,-0.095
-0.095,-0.105
-0.085,-0.105
-0.075,-0.105
-0.075,-0.105
-0.115,-0.095
0.035,-0.105
0.415,-0.085
0.945,-0.025
1.025,0.005
0.385,-0.125
-0.255,-0.325
-0.315,-0.425
-0.105,-0.355
-0.035,-0.135
-0.045,-0.055
-0.055,-0.045
-0.065,-0.055
-0.055,-0.065
-0.055,-0.055
-0.055,-0.045
-0.045,-0.045
-0.045,-0.045
-0.035,-0.045
-0.025,-0.035
-0.035,-0.045
-0.025,-0.045
-0.015,-0.035
-0.005,-0.035
0.005,-0.025
0.015,-0.025
0.025,-0.035
0.025,-0.015
0.025,-0.015
0.055,-0.015
0.075,-0.005
0.085,0.015
0.105,0.025
0.115,0.025
0.125,0.045
0.145,0.045
0.145,0.065
0.165,0.055
0.175,0.065
0.185,0.065
0.185,0.065
0.165,0.055
0.145,0.035
0.115,0.015
0.075,-0.005
0.045,-0.035
0.015,-0.055
-0.015,-0.065
-0.025,-0.075
-0.045,-0.095
-0.055,-0.105
-0.065,-0.105
-0.075,-0.105
-0.065,-0.115
-0.055,-0.105
-0.055,-0.105
-0.045,-0.105
-0.045,-0.105
-0.055,-0.105
-0.045,-0.105
-0.055,-0.095
-0.045,-0.105
-0.045,-0.105
-0.025,-0.105
-0.035,-0.105
-0.035,-0.095
-0.045,-0.105
-0.035,-0.105
-0.045,-0.105
-0.045,-0.105
-0.055,-0.105
-0.045,-0.105
-0.065,-0.105
-0.055,-0.105
-0.065,-0.115
-0.065,-0.115
-0.065,-0.115
-0.075,-0.115
-0.065,-0.125
-0.075,-0.115
-0.075,-0.115
-0.075,-0.115
-0.065,-0.125
-0.075,-0.115
-0.065,-0.125
-0.065,-0.115
-0.045,-0.115
-0.035,-0.105
-0.025,-0.095
-0.015,-0.095
0.005,-0.095
0.025,-0.085
0.035,-0.075
0.015,-0.085
0.025,-0.095
-0.005,-0.095
-0.025,-0.095
-0.055,-0.105
-0.075,-0.125
-0.085,-0.125
-0.075,-0.135
-0.095,-0.135
-0.085,-0.145
-0.085,-0.135
-0.095,-0.125
-0.085,-0.135
-0.085,-0.135
-0.075,-0.135
-0.075,-0.125
-0.075,-0.125
-0.095,-0.135
-0.095,-0.135
0.125,-0.125
0.565,-0.095
1.015,-0.035
0.805,-0.005
0.165,-0.185
-0.405,-0.365
-0.245,-0.455
-0.045,-0.295
-0.015,-0.105
-0.035,-0.065
-0.045,-0.075
-0.045,-0.075
-0.035,-0.075
-0.035,-0.065
-0.035,-0.075
-0.025,-0.065
-0.025,-0.065
-0.005,-0.055
-0.015,-0.065
-0.005,-0.055
0.005,-0.055
0.005,-0.045
0.025,-0.055
0.025,-0.045
0.035,-0.035
0.055,-0.035
0.055,-0.035
0.075,-0.015
0.105,-0.015
0.105,-0.005
0.125,-0.005
0.145,0.015
0.165,0.025
0.185,0.025
0.195,0.025
0.195,0.045
0.205,0.045
0.205,0.045
0.195,0.025
0.165,0.025
0.125,0.005
0.075,-0.015
0.035,-0.045
-0.005,-0.065
-0.045,-0.075
-0.065,-0.085
-0.075,-0.105
-0.085,-0.105
-0.085,-0.105
-0.085,-0.105
-0.085,-0.105
-0.085,-0.105
-0.095,-0.105
-0.085,-0.105
-0.085,-0.115
-0.075,-0.095
-0.075,-0.105
-0.075,-0.105
-0.075,-0.105
-0.065,-0.095
-0.075,-0.105
-0.075,-0.105
-0.065,-0.105
-0.065,-0.095
-0.065,-0.095
-0.065,-0.105
-0.065,-0.095
-0.065,-0.095
-0.085,-0.105
-0.075,-0.105
-0.075,-0.105
-0.075,-0.095
-0.075,-0.095
-0.085,-0.105
-0.085,-0.115
-0.075,-0.105
-0.095,-0.115
-0.085,-0.115
-0.085,-0.115
-0.075,-0.105
-0.055,-0.105
-0.045,-0.105
-0.045,-0.095
-0.025,-0.085
-0.035,-0.075
0.005,-0.075
0.015,-0.065
0.015,-0.065
0.015,-0.065
0.015,-0.085
-0.025,-0.075
-0.045,-0.085
-0.085,-0.095
-0.085,-0.105
-0.085,-0.115
-0.095,-0.115
-0.095,-0.125
-0.095,-0.125
-0.095,-0.125
-0.095,-0.115
-0.105,-0.115
-0.105,-0.115
-0.095,-0.125
-0.085,-0.115
-0.075,-0.115
-0.115,-0.115
-0.095,-0.115
0.175,-0.115
0.655,-0.075
1.065,-0.005
0.685,-0.035
0.045,-0.205
-0.425,-0.375
-0.205,-0.415
-0.055,-0.215
-0.035,-0.075
-0.065,-0.045
-0.065,-0.055
-0.055,-0.065
-0.055,-0.055
-0.045,-0.055
-0.045,-0.065
-0.045,-0.055
-0.035,-0.045
-0.045,-0.045
-0.035,-0.045
-0.025,-0.045
-0.005,-0.035
-0.005,-0.035
0.005,-0.035
0.005,-0.035
0.025,-0.015
0.025,-0.015
0.045,-0.005
0.055,-0.005
0.075,0.005
0.095,0.015
0.115,0.025
0.135,0.025
0.145,0.045
0.165,0.055
0.175,0.045
0.195,0.065
0.205,0.065
0.205,0.075
0.195,0.065
0.165,0.045
0.115,0.025
0.065,0.005
0.015,-0.025
-0.025,-0.055
-0.055,-0.065
-0.085,-0.085
-0.105,-0.095
-0.115,-0.105
-0.115,-0.105
-0.125,-0.115
-0.125,-0.115
-0.125,-0.115
-0.125,-0.105
-0.115,-0.115
-0.125,-0.115
-0.115,-0.115
-0.105,-0.105
-0.115,-0.115
-0.115,-0.115
-0.105,-0.115
-0.105,-0.105
-0.095,-0.105
-0.105,-0.105
-0.105,-0.105
-0.095,-0.105
-0.095,-0.105
-0.105,-0.105
-0.105,-0.115
-0.105,-0.105
-0.105,-0.105
-0.105,-0.105
-0.115,-0.115
-0.115,-0.105
-0.115,-0.105
-0.125,-0.105
-0.115,-0.115
-0.115,-0.115
-0.115,-0.115
-0.115,-0.115
-0.125,-0.125
-0.115,-0.115
-0.095,-0.105
-0.095,-0.105
-0.075,-0.105
-0.065,-0.095
-0.075,-0.085
-0.035,-0.075
-0.025,-0.075
-0.015,-0.075
-0.025,-0.075
-0.035,-0.085
-0.075,-0.095
-0.095,-0.105
-0.125,-0.105
-0.115,-0.115
-0.135,-0.125
-0.135,-0.125
-0.135,-0.125
-0.145,-0.125
-0.145,-0.125
-0.135,-0.125
-0.135,-0.125
-0.135,-0.125
-0.135,-0.135
-0.125,-0.125
-0.125,-0.125
-0.185,-0.115
-0.065,-0.135
0.285,-0.105
0.865,-0.065
1.095,-0.025
0.455,-0.125
-0.185,-0.315
-0.385,-0.435
-0.165,-0.335
-0.075,-0.135
-0.085,-0.045
-0.095,-0.045
-0.105,-0.065
-0.105,-0.065
-0.095,-0.055
-0.105,-0.055
-0.085,-0.055
-0.085,-0.055
-0.075,-0.055
-0.065,-0.045
-0.065,-0.055
-0.065,-0.045
-0.045,-0.035
-0.055,-0.035
-0.035,-0.025
-0.015,-0.025
0.005,-0.015
0.015,-0.005
0.025,-0.005
0.035,0.005
0.055,0.025
0.065,0.025
0.095,0.035
0.125,0.045
0.145,0.065
0.165,0.075
0.185,0.075
0.195,0.075
0.215,0.085
0.195,0.085
0.175,0.075
0.145,0.045
0.085,0.035
0.025,-0.005
-0.025,-0.025
-0.065,-0.065
-0.095,-0.075
-0.125,-0.095
-0.135,-0.105
-0.145,-0.105
-0.145,-0.105
-0.145,-0.115
-0.145,-0.115
-0.145,-0.115
-0.135,-0.115
-0.155,-0.115
-0.145,-0.115
-0.145,-0.115
-0.135,-0.105
-0.135,-0.105
-0.135,-0.115
-0.125,-0.105
-0.125,-0.105
-0.135,-0.105
-0.125,-0.105
-0.115,-0.105
-0.115,-0.105
-0.115,-0.095
-0.125,-0.105
-0.115,-0.105
-0.115,-0.105
-0.135,-0.105
-0.125,-0.105
-0.125,-0.115
-0.125,-0.105
-0.125,-0.105
-0.135,-0.105
-0.135,-0.105
-0.135,-0.115
-0.145,-0.105
-0.135,-0.115
-0.125,-0.115
-0.105,-0.105
-0.095,-0.105
-0.095,-0.095
-0.075,-0.085
-0.065,-0.075
-0.065,-0.075
-0.045,-0.075
-0.035,-0.065
-0.035,-0.065
-0.045,-0.085
-0.095,-0.085
-0.105,-0.095
-0.125,-0.095
-0.145,-0.105
-0.145,-0.115
-0.145,-0.125
-0.145,-0.115
-0.145,-0.125
-0.155,-0.125
-0.155,-0.125
-0.145,-0.115
-0.155,-0.115
-0.145,-0.125
-0.145,-0.115
-0.135,-0.115
-0.165,-0.115
-0.145,-0.115
0.105,-0.125
0.615,-0.075
1.055,-0.005
0.725,-0.035
0.085,-0.205
-0.455,-0.375
-0.275,-0.415
-0.115,-0.235
-0.095,-0.085
-0.105,-0.045
-0.125,-0.055
-0.125,-0.065
-0.115,-0.065
-0.115,-0.055
-0.095,-0.055
-0.105,-0.055
-0.105,-0.055
-0.095,-0.055
-0.085,-0.045
-0.075,-0.045
-0.065,-0.055
-0.055,-0.035
-0.045,-0.035
-0.045,-0.025
-0.035,-0.035
-0.015,-0.015
-0.015,-0.015
0.005,-0.005
0.025,-0.005
0.045,0.015
0.065,0.025
0.085,0.035
0.105,0.045
0.125,0.055
0.145,0.055
0.155,0.075
0.175,0.065
0.185,0.085
0.175,0.075
0.145,0.055
0.095,0.035
0.045,0.015
-0.005,-0.015
-0.055,-0.045
-0.085,-0.065
-0.105,-0.085
-0.135,-0.095
-0.145,-0.105
-0.155,-0.115
-0.155,-0.115
-0.165,-0.115
-0.165,-0.115
-0.155,-0.125
-0.155,-0.125
-0.155,-0.115
-0.155,-0.115
-0.155,-0.125
-0.155,-0.115
-0.155,-0.115
-0.145,-0.115
-0.135,-0.125
-0.135,-0.115
-0.135,-0.115
-0.135,-0.115
-0.125,-0.115
-0.115,-0.105
-0.125,-0.105
-0.125,-0.105
-0.095,-0.115
-0.075,-0.105
-0.025,-0.085
0.035,-0.065
0.275,-0.025
0.495,0.055
0.675,0.125
0.825,0.135
0.945,0.095
1.125,0.045
1.295,0.035
1.265,0.045
1.045,-0.105
0.775,-0.265
0.715,-0.395
0.435,-0.335
-0.015,-0.195
-0.255,-0.105
-0.305,-0.085
-0.275,-0.085
-0.295,-0.085
-0.295,-0.085
-0.305,-0.095
-0.355,-0.095
-0.375,-0.115
-0.415,-0.105
-0.435,-0.115
-0.445,-0.125
-0.455,-0.135
-0.465,-0.125
-0.485,-0.125
-0.495,-0.125
-0.515,-0.125
-0.535,-0.115
-0.565,-0.115
-0.585,-0.115
-0.615,-0.115
-0.645,-0.115
-0.675,-0.115
-0.685,-0.105
-0.675,-0.105
-0.655,-0.095
-0.615,-0.085
-0.575,-0.065
-0.515,-0.065
-0.425,-0.045
-0.365,-0.035
-0.295,-0.035
-0.235,-0.045
-0.205,-0.055
-0.175,-0.075
-0.165,-0.105
-0.165,-0.115
-0.155,-0.115
-0.175,-0.125
-0.175,-0.145
-0.165,-0.155
-0.165,-0.145
-0.165,-0.145
-0.165,-0.155
-0.155,-0.155
-0.155,-0.145
-0.165,-0.145
-0.155,-0.155
-0.155,-0.145
-0.135,-0.145
-0.135,-0.145
-0.145,-0.145
-0.135,-0.145
-0.125,-0.135
-0.145,-0.145
-0.145,-0.145
-0.135,-0.145
-0.125,-0.135
-0.115,-0.135
-0.135,-0.145
-0.125,-0.145
-0.125,-0.145
-0.135,-0.145
-0.135,-0.155
-0.135,-0.155
-0.125,-0.145
-0.125,-0.145
-0.125,-0.145
-0.135,-0.145
-0.125,-0.145
-0.125,-0.145
-0.135,-0.145
-0.135,-0.155
-0.115,-0.145
-0.125,-0.145
-0.115,-0.145
-0.125,-0.145
-0.125,-0.145
-0.125,-0.135
-0.135,-0.145
-0.125,-0.145
-0.125,-0.135
-0.115,-0.145
-0.115,-0.135
-0.125,-0.145
-0.125,-0.145
-0.125,-0.135
-0.125,-0.135
-0.125,-0.145
-0.125,-0.145
-0.125,-0.135
-0.115,-0.145
-0.115,-0.145
-0.115,-0.145
-0.115,-0.135
-0.125,-0.145
-0.115,-0.145
-0.115,-0.135
-0.115,-0.135
-0.105,-0.145
-0.115,-0.145
-0.105,-0.135
-0.105,-0.135
-0.115,-0.135
-0.105,-0.135
-0.105,-0.135
-0.105,-0.135
-0.105,-0.135
-0.105,-0.135
-0.085,-0.125
-0.065,-0.115
-0.075,-0.115
-0.055,-0.115
-0.045,-0.095
-0.025,-0.095
-0.005,-0.085
-0.005,-0.095
-0.005,-0.085
-0.015,-0.105
-0.075,-0.105
-0.075,-0.125
-0.095,-0.125
-0.105,-0.125
-0.115,-0.135
-0.125,-0.145
-0.125,-0.145
-0.125,-0.145
-0.135,-0.145
-0.125,-0.145
-0.125,-0.135
-0.125,-0.135
-0.105,-0.135
-0.125,-0.145
-0.155,-0.125
0.005,-0.135
0.365,-0.105
0.855,-0.075
0.905,-0.015
0.265,-0.175
-0.375,-0.355
-0.375,-0.455
-0.135,-0.375
-0.065,-0.145
-0.085,-0.075
-0.105,-0.085
-0.095,-0.085
-0.085,-0.085
-0.095,-0.085
-0.085,-0.085
-0.075,-0.075
-0.095,-0.075
-0.085,-0.075
-0.075,-0.085
-0.065,-0.065
-0.065,-0.065
-0.045,-0.065
-0.035,-0.065
-0.035,-0.055
-0.035,-0.065
-0.015,-0.055
-0.005,-0.045
0.015,-0.035
0.025,-0.025
0.035,-0.025
0.055,-0.015
0.065,-0.005
0.075,0.005
0.095,0.005
0.115,0.005
0.125,0.025
0.145,0.025
0.135,0.025
0.135,0.025
0.135,0.025
0.095,0.005
0.075,-0.015
0.055,-0.035
0.015,-0.045
-0.025,-0.065
-0.055,-0.085
-0.085,-0.105
-0.095,-0.105
-0.105,-0.115
-0.125,-0.125
-0.125,-0.115
-0.115,-0.125
-0.115,-0.125
-0.105,-0.125
-0.105,-0.125
-0.105,-0.115
-0.105,-0.115
-0.105,-0.115
-0.095,-0.125
-0.095,-0.115
-0.085,-0.115
-0.085,-0.115
-0.095,-0.115
-0.085,-0.105
-0.095,-0.115
-0.085,-0.115
-0.095,-0.115
-0.095,-0.105
-0.095,-0.115
-0.095,-0.115
-0.105,-0.125
-0.115,-0.115
-0.125,-0.115
-0.115,-0.125
-0.125,-0.125
-0.115,-0.115
-0.115,-0.115
-0.125,-0.115
-0.115,-0.125
-0.095,-0.105
-0.105,-0.115
-0.085,-0.105
-0.075,-0.095
-0.055,-0.085
-0.045,-0.085
-0.025,-0.085
-0.025,-0.075
-0.025,-0.075
-0.035,-0.085
-0.065,-0.095
-0.075,-0.095
-0.105,-0.105
-0.115,-0.115
-0.125,-0.125
-0.125,-0.125
-0.125,-0.125
-0.145,-0.125
-0.135,-0.125
-0.125,-0.125
-0.125,-0.125
-0.125,-0.125
-0.125,-0.125
-0.125,-0.125
-0.105,-0.115
-0.145,-0.125
-0.155,-0.125
0.075,-0.135
0.575,-0.085
1.005,-0.025
0.755,-0.025
0.115,-0.205
-0.445,-0.355
-0.305,-0.435
-0.095,-0.275
-0.055,-0.105
-0.075,-0.045
-0.075,-0.055
-0.085,-0.055
-0.085,-0.065
-0.075,-0.055
-0.075,-0.055
-0.075,-0.065
-0.065,-0.055
-0.055,-0.045
-0.045,-0.045
-0.045,-0.045
-0.035,-0.045
-0.025,-0.045
-0.015,-0.035
-0.015,-0.025
0.005,-0.035
0.025,-0.015
0.025,-0.015
0.045,-0.005
0.055,-0.005
0.085,0.015
0.095,0.025
0.105,0.025
0.135,0.035
0.155,0.055
0.175,0.065
0.195,0.065
0.195,0.065
0.205,0.075
0.195,0.065
0.175,0.065
0.125,0.045
0.085,0.025
0.025,-0.005
-0.015,-0.025
-0.055,-0.055
-0.085,-0.065
-0.105,-0.085
-0.125,-0.085
-0.125,-0.095
-0.125,-0.095
-0.125,-0.095
-0.125,-0.095
-0.125,-0.105
-0.125,-0.095
-0.125,-0.095
-0.135,-0.095
-0.115,-0.105
-0.115,-0.095
-0.115,-0.095
-0.115,-0.095
-0.105,-0.095
-0.105,-0.095
-0.105,-0.085
-0.115,-0.095
-0.105,-0.095
-0.095,-0.085
-0.095,-0.085
-0.095,-0.085
-0.095,-0.085
-0.095,-0.085
-0.105,-0.085
-0.105,-0.085
-0.105,-0.085
-0.105,-0.085
-0.105,-0.085
-0.105,-0.095
-0.105,-0.095
-0.105,-0.085
-0.105,-0.085
-0.105,-0.085
-0.085,-0.095
-0.065,-0.075
-0.055,-0.065
-0.045,-0.065
-0.045,-0.065
-0.015,-0.055
-0.005,-0.035
-0.015,-0.045
-0.005,-0.055
-0.035,-0.055
-0.055,-0.065
-0.085,-0.075
-0.095,-0.085
-0.105,-0.085
-0.125,-0.095
-0.125,-0.105
-0.115,-0.105
-0.115,-0.095
-0.115,-0.095
-0.125,-0.095
-0.125,-0.105
-0.115,-0.095
-0.125,-0.095
-0.115,-0.095
-0.135,-0.105
-0.145,-0.095
0.085,-0.105
0.555,-0.065
1.055,-0.005
0.845,-0.015
0.205,-0.175
-0.435,-0.365
-0.265,-0.415
-0.085,-0.225
-0.055,-0.065
-0.075,-0.025
-0.095,-0.045
-0.085,-0.035
-0.095,-0.035
-0.075,-0.045
-0.075,-0.035
-0.065,-0.025
-0.055,-0.025
-0.065,-0.025
-0.055,-0.025
-0.045,-0.015
-0.045,-0.015
-0.025,-0.015
-0.015,-0.005
0.005,-0.005
0.005,0.005
0.015,0.015
0.025,0.015
0.045,0.025
0.055,0.025
0.075,0.045
0.095,0.045
0.125,0.065
0.145,0.075
0.165,0.085
0.175,0.085
0.205,0.105
0.205,0.105
0.225,0.105
0.215,0.095
0.195,0.095
0.145,0.065
0.085,0.035
0.035,0.005
-0.015,-0.015
-0.065,-0.035
-0.095,-0.065
-0.105,-0.075
-0.115,-0.085
-0.115,-0.085
-0.125,-0.095
-0.135,-0.095
-0.125,-0.085
-0.135,-0.095
-0.135,-0.095
-0.125,-0.095
-0.125,-0.085
-0.125,-0.095
-0.125,-0.095
-0.125,-0.085
-0.125,-0.085
-0.115,-0.085
-0.115,-0.085
-0.115,-0.085
-0.105,-0.085
-0.105,-0.075
-0.095,-0.085
-0.105,-0.085
-0.115,-0.085
-0.105,-0.085
-0.115,-0.085
-0.115,-0.085
-0.105,-0.085
-0.105,-0.085
-0.115,-0.085
-0.105,-0.095
-0.115,-0.085
-0.115,-0.095
-0.115,-0.095
-0.105,-0.095
-0.085,-0.085
-0.075,-0.085
-0.075,-0.085
-0.065,-0.075
-0.055,-0.065
-0.045,-0.055
-0.025,-0.055
-0.015,-0.055
-0.015,-0.055
-0.015,-0.065
-0.065,-0.065
-0.095,-0.085
-0.105,-0.085
-0.125,-0.105
-0.125,-0.105
-0.125,-0.105
-0.125,-0.105
-0.125,-0.105
-0.135,-0.105
-0.135,-0.115
-0.125,-0.105
-0.145,-0.105
-0.125,-0.115
-0.115,-0.115
-0.115,-0.105
-0.135,-0.105
-0.135,-0.105
0.125,-0.115
0.595,-0.065
1.055,-0.005
0.805,-0.025
0.165,-0.175
-0.415,-0.345
-0.265,-0.415
-0.095,-0.245
-0.065,-0.075
-0.075,-0.035
-0.095,-0.045
-0.095,-0.055
-0.085,-0.055
-0.075,-0.045
-0.075,-0.045
-0.075,-0.045
-0.065,-0.045
-0.055,-0.045
-0.055,-0.035
-0.045,-0.035
-0.035,-0.035
-0.025,-0.025
-0.015,-0.015
-0.005,-0.015
0.005,-0.015
0.015,-0.005
0.025,0.005
0.035,0.005
0.055,0.005
0.075,0.025
0.095,0.035
0.115,0.045
0.125,0.045
0.145,0.065
0.185,0.075
0.195,0.085
0.205,0.085
0.225,0.085
0.225,0.085
0.205,0.085
0.155,0.055
0.105,0.035
0.045,0.005
-0.025,-0.015
-0.055,-0.045
-0.085,-0.075
-0.105,-0.085
-0.105,-0.095
-0.115,-0.105
-0.125,-0.105
-0.125,-0.105
-0.135,-0.115
-0.125,-0.115
-0.125,-0.105
-0.125,-0.105
-0.125,-0.105
-0.125,-0.105
-0.115,-0.105
-0.115,-0.095
-0.125,-0.105
-0.115,-0.115
-0.115,-0.105
-0.105,-0.105
-0.105,-0.105
-0.105,-0.105
-0.105,-0.105
-0.105,-0.105
-0.105,-0.105
-0.105,-0.105
-0.105,-0.105
-0.105,-0.105
-0.115,-0.105
-0.115,-0.115
-0.105,-0.115
-0.115,-0.115
-0.115,-0.115
-0.115,-0.115
-0.115,-0.105
-0.105,-0.115
-0.105,-0.115
-0.085,-0.105
-0.065,-0.095
-0.075,-0.095
-0.065,-0.095
-0.045,-0.085
-0.015,-0.065
-0.005,-0.065
-0.025,-0.075
-0.015,-0.085
-0.045,-0.085
-0.085,-0.095
-0.105,-0.115
-0.105,-0.115
-0.115,-0.115
-0.115,-0.135
-0.125,-0.135
-0.125,-0.135
-0.115,-0.125
-0.135,-0.125
-0.135,-0.135
-0.125,-0.135
-0.125,-0.125
-0.105,-0.135
-0.115,-0.135
-0.115,-0.135
-0.155,-0.125
-0.025,-0.125
0.355,-0.115
0.895,-0.075
1.015,-0.005
0.375,-0.115
-0.265,-0.315
-0.365,-0.445
-0.125,-0.375
-0.075,-0.155
-0.075,-0.075
-0.075,-0.065
-0.075,-0.065
-0.075,-0.075
-0.075,-0.075
-0.075,-0.075
-0.065,-0.065
-0.075,-0.065
-0.065,-0.065
-0.055,-0.065
-0.045,-0.055
-0.025,-0.065
-0.025,-0.055
-0.015,-0.055
-0.005,-0.045
-0.005,-0.035
0.005,-0.035
0.025,-0.025
0.045,-0.025
0.065,-0.015
0.065,-0.005
0.085,0.005
0.115,0.005
0.125,0.025
0.145,0.025
0.175,0.035
0.185,0.045
0.205,0.045
0.215,0.045
0.215,0.045
0.195,0.045
0.155,0.025
0.105,0.005
0.055,-0.025
0.005,-0.045
-0.025,-0.065
-0.065,-0.085
-0.085,-0.095
-0.105,-0.105
-0.115,-0.115
-0.115,-0.115
-0.115,-0.125
-0.115,-0.115
-0.105,-0.115
-0.105,-0.125
-0.115,-0.125
-0.115,-0.115
-0.115,-0.115
-0.115,-0.115
-0.105,-0.125
-0.105,-0.115
-0.095,-0.105
-0.095,-0.115
-0.095,-0.115
-0.085,-0.105
-0.095,-0.115
-0.095,-0.105
-0.095,-0.115
-0.085,-0.105
-0.085,-0.115
-0.095,-0.105
-0.095,-0.115
-0.095,-0.115
-0.095,-0.105
-0.095,-0.115
-0.095,-0.125
-0.095,-0.115
-0.095,-0.115
-0.105,-0.115
-0.095,-0.125
-0.085,-0.115
-0.075,-0.115
-0.065,-0.105
-0.055,-0.105
-0.035,-0.085
-0.025,-0.085
-0.005,-0.085
-0.015,-0.075
0.005,-0.085
-0.015,-0.085
-0.015,-0.095
-0.035,-0.085
-0.075,-0.095
-0.095,-0.105
-0.105,-0.115
-0.105,-0.125
-0.115,-0.125
-0.125,-0.135
-0.105,-0.135
-0.115,-0.135
-0.115,-0.125
-0.105,-0.125
-0.115,-0.135
-0.105,-0.125
-0.095,-0.125
-0.115,-0.125
-0.155,-0.125
-0.015,-0.135
0.355,-0.115
0.845,-0.075
1.005,-0.015
0.365,-0.105
-0.275,-0.295
-0.435,-0.415
-0.175,-0.405
-0.045,-0.195
-0.045,-0.075
-0.065,-0.055
-0.075,-0.075
-0.075,-0.075
-0.065,-0.065
-0.075,-0.075
-0.065,-0.065
-0.055,-0.075
-0.055,-0.065
-0.035,-0.065
-0.035,-0.055
-0.025,-0.055
-0.025,-0.045
-0.025,-0.045
-0.005,-0.045
0.005,-0.045
0.015,-0.035
0.025,-0.025
0.045,-0.025
0.055,-0.025
0.075,-0.005
0.085,-0.005
0.115,0.005
0.135,0.015
0.155,0.025
0.175,0.045
0.195,0.045
0.195,0.045
0.215,0.045
0.215,0.045
0.185,0.035
0.155,0.015
0.115,0.005
0.055,-0.015
0.005,-0.035
-0.035,-0.065
-0.065,-0.085
-0.095,-0.095
-0.115,-0.095
-0.115,-0.115
-0.115,-0.115
-0.125,-0.115
-0.125,-0.105
-0.125,-0.115
-0.125,-0.115
-0.125,-0.115
-0.125,-0.115
-0.125,-0.115
-0.125,-0.115
-0.125,-0.105
-0.125,-0.105
-0.115,-0.115
-0.105,-0.105
-0.125,-0.105
-0.105,-0.105
-0.105,-0.105
-0.105,-0.105
-0.095,-0.105
-0.105,-0.105
-0.105,-0.105
-0.105,-0.095
-0.125,-0.105
-0.115,-0.105
-0.115,-0.105
-0.115,-0.105
-0.105,-0.105
-0.115,-0.115
-0.115,-0.115
-0.115,-0.105
-0.135,-0.105
-0.115,-0.115
-0.105,-0.105
-0.085,-0.095
-0.075,-0.095
-0.065,-0.095
-0.065,-0.085
-0.045,-0.075
-0.035,-0.065
-0.025,-0.075
-0.025,-0.075
-0.025,-0.075
-0.045,-0.085
-0.075,-0.085
-0.115,-0.095
-0.115,-0.105
-0.145,-0.115
-0.145,-0.125
-0.145,-0.125
-0.145,-0.115
-0.135,-0.125
-0.145,-0.125
-0.145,-0.125
-0.135,-0.115
-0.155,-0.125
-0.135,-0.125
-0.135,-0.135
-0.135,-0.115
-0.175,-0.125
-0.015,-0.135
0.355,-0.105
0.855,-0.055
1.015,-0.035
0.375,-0.135
-0.265,-0.325
-0.415,-0.425
-0.175,-0.365
-0.085,-0.145
-0.095,-0.065
-0.105,-0.055
-0.115,-0.065
-0.125,-0.065
-0.105,-0.075
-0.095,-0.065
-0.095,-0.065
-0.095,-0.065
-0.095,-0.065
-0.085,-0.055
-0.085,-0.045
-0.075,-0.045
-0.055,-0.055
-0.045,-0.035
-0.045,-0.035
-0.025,-0.025
-0.025,-0.025
-0.005,-0.015
0.005,-0.015
0.025,-0.005
0.045,0.005
0.065,0.005
0.085,0.035
0.105,0.035
0.135,0.045
0.155,0.055
0.175,0.065
0.195,0.065
0.205,0.065
0.195,0.065
0.165,0.065
0.115,0.035
0.045,0.005
-0.005,-0.015
-0.055,-0.045
-0.095,-0.065
-0.115,-0.085
-0.135,-0.095
-0.145,-0.105
-0.155,-0.115
-0.165,-0.125
-0.165,-0.115
-0.185,-0.125
-0.165,-0.125
-0.165,-0.125
-0.155,-0.115
-0.155,-0.125
-0.165,-0.125
-0.155,-0.125
-0.155,-0.115
-0.165,-0.115
-0.155,-0.125
-0.155,-0.115
-0.145,-0.105
-0.135,-0.105
-0.145,-0.115
-0.145,-0.115
-0.135,-0.105
-0.155,-0.105
-0.145,-0.115
-0.145,-0.105
-0.135,-0.115
-0.135,-0.105
-0.145,-0.115
-0.145,-0.115
-0.145,-0.105
-0.155,-0.115
-0.155,-0.125
-0.155,-0.115
-0.145,-0.115
-0.145,-0.115
-0.145,-0.115
-0.145,-0.125
-0.135,-0.115
-0.135,-0.115
-0.115,-0.105
-0.105,-0.105
-0.085,-0.085
-0.085,-0.085
-0.055,-0.075
-0.045,-0.075
-0.045,-0.065
-0.065,-0.075
-0.065,-0.095
-0.095,-0.085
-0.115,-0.085
-0.135,-0.095
-0.155,-0.115
-0.155,-0.115
-0.155,-0.125
-0.165,-0.125
-0.165,-0.125
-0.165,-0.125
-0.165,-0.125
-0.165,-0.125
-0.165,-0.125
-0.165,-0.125
-0.155,-0.125
-0.155,-0.125
-0.175,-0.135
-0.165,-0.135
0.065,-0.135
0.545,-0.085
1.025,-0.035
0.855,-0.055
0.215,-0.185
-0.425,-0.375
-0.305,-0.435
-0.125,-0.255
-0.095,-0.085
-0.115,-0.045
-0.115,-0.065
-0.115,-0.075
-0.115,-0.065
-0.125,-0.055
-0.105,-0.065
-0.105,-0.055
-0.095,-0.055
-0.085,-0.055
-0.085,-0.055
-0.075,-0.045
-0.055,-0.045
-0.065,-0.035
-0.055,-0.035
-0.035,-0.025
-0.025,-0.025
-0.005,-0.015
0.005,-0.005
0.025,0.005
0.035,0.015
0.045,0.025
0.075,0.035
0.105,0.025
0.125,0.055
0.155,0.065
0.175,0.075
0.195,0.065
0.205,0.085
0.215,0.085
0.195,0.085
0.165,0.055
0.125,0.045
0.065,0.015
0.005,-0.015
-0.055,-0.045
-0.085,-0.065
-0.105,-0.085
-0.135,-0.095
-0.135,-0.115
-0.155,-0.115
-0.155,-0.115
-0.155,-0.115
-0.155,-0.125
-0.155,-0.125
-0.155,-0.115
-0.155,-0.115
-0.145,-0.125
-0.145,-0.125
-0.145,-0.115
-0.135,-0.115
-0.145,-0.115
-0.145,-0.115
-0.135,-0.115
-0.145,-0.115
-0.135,-0.115
-0.125,-0.105
-0.125,-0.105
-0.125,-0.105
-0.135,-0.115
-0.125,-0.105
-0.145,-0.115
-0.145,-0.115
-0.135,-0.115
-0.135,-0.115
-0.135,-0.115
-0.135,-0.125
-0.145,-0.125
-0.135,-0.115
-0.145,-0.125
-0.135,-0.125
-0.135,-0.125
-0.135,-0.115
-0.135,-0.125
-0.135,-0.125
-0.125,-0.125
-0.105,-0.115
-0.115,-0.105
-0.095,-0.105
-0.085,-0.095
-0.065,-0.085
-0.035,-0.085
-0.035,-0.075
-0.035,-0.085
-0.035,-0.075
-0.065,-0.095
-0.085,-0.095
-0.115,-0.105
-0.125,-0.105
-0.135,-0.125
-0.145,-0.125
-0.145,-0.135
-0.145,-0.135
-0.165,-0.135
-0.155,-0.135
-0.145,-0.135
-0.155,-0.135
-0.145,-0.135
-0.145,-0.135
-0.145,-0.135
-0.135,-0.135
-0.195,-0.135
-0.095,-0.135
0.225,-0.135
0.745,-0.085
1.055,-0.015
0.515,-0.095
-0.125,-0.285
-0.465,-0.415
-0.255,-0.435
-0.115,-0.235
-0.105,-0.095
-0.105,-0.065
-0.115,-0.075
-0.115,-0.085
-0.115,-0.085
-0.115,-0.085
-0.115,-0.075
-0.115,-0.075
-0.095,-0.075
-0.085,-0.075
-0.085,-0.065
-0.075,-0.065
-0.075,-0.065
-0.055,-0.055
-0.045,-0.045
-0.055,-0.055
-0.035,-0.045
-0.015,-0.035
-0.005,-0.035
0.015,-0.025
0.025,-0.025
0.045,-0.005
0.065,0.005
0.075,0.015
0.115,0.025
0.135,0.035
0.155,0.045
0.175,0.045
0.185,0.045
0.195,0.045
0.165,0.035
0.135,0.025
0.075,-0.005
0.025,-0.025
-0.025,-0.055
-0.075,-0.085
-0.105,-0.105
-0.125,-0.105
-0.155,-0.125
-0.145,-0.135
-0.155,-0.135
-0.155,-0.135
-0.155,-0.135
-0.155,-0.135
-0.155,-0.145
-0.155,-0.135
-0.165,-0.135
-0.165,-0.135
-0.155,-0.135
-0.155,-0.135
-0.135,-0.135
-0.135,-0.135
-0.145,-0.135
-0.135,-0.125
-0.135,-0.125
-0.135,-0.125
-0.115,-0.125
-0.095,-0.115
-0.075,-0.115
-0.025,-0.105
0.025,-0.095
0.295,-0.045
0.485,0.025
0.625,0.085
0.735,0.095
0.845,0.045
1.025,-0.015
1.205,-0.025
1.135,-0.035
0.905,-0.145
0.635,-0.295
0.585,-0.415
0.335,-0.385
-0.075,-0.245
-0.275,-0.155
-0.305,-0.115
-0.305,-0.125
-0.315,-0.115
-0.315,-0.105
-0.305,-0.095
-0.275,-0.095
-0.285,-0.085
-0.295,-0.095
-0.295,-0.095
-0.315,-0.095
-0.355,-0.095
-0.405,-0.105
-0.425,-0.115
-0.435,-0.125
-0.455,-0.125
-0.475,-0.125
-0.495,-0.125
-0.525,-0.135
-0.535,-0.125
-0.575,-0.115
-0.585,-0.115
-0.595,-0.115
-0.575,-0.095
-0.545,-0.095
-0.515,-0.075
-0.465,-0.065
-0.395,-0.055
-0.335,-0.045
-0.275,-0.045
-0.225,-0.045
-0.195,-0.045
-0.175,-0.075
-0.155,-0.095
-0.165,-0.115
-0.175,-0.125
-0.195,-0.135
-0.185,-0.145
-0.195,-0.155
-0.195,-0.155
-0.185,-0.165
-0.195,-0.165
-0.195,-0.165
-0.185,-0.165
-0.205,-0.155
-0.185,-0.155
-0.185,-0.155
-0.175,-0.155
-0.165,-0.155
-0.175,-0.155
-0.175,-0.155
-0.175,-0.145
-0.185,-0.145
-0.175,-0.155
-0.175,-0.155
-0.165,-0.145
-0.155,-0.155
-0.175,-0.155
-0.175,-0.155
-0.155,-0.145
-0.175,-0.155
-0.175,-0.155
-0.175,-0.145
-0.165,-0.145
-0.155,-0.155
-0.165,-0.155
-0.175,-0.155
-0.165,-0.145
-0.175,-0.155
-0.165,-0.155
-0.165,-0.155
-0.155,-0.145
-0.155,-0.145
-0.155,-0.145
-0.165,-0.155
-0.155,-0.145
-0.165,-0.145
-0.165,-0.145
-0.165,-0.145
-0.145,-0.145
-0.155,-0.135
-0.155,-0.145
-0.165,-0.145
-0.145,-0.135
-0.165,-0.135
-0.155,-0.135
-0.145,-0.145
-0.145,-0.135
-0.145,-0.135
-0.145,-0.135
-0.145,-0.135
-0.135,-0.125
-0.155,-0.135
-0.155,-0.135
-0.145,-0.135
-0.135,-0.125
-0.135,-0.125
-0.135,-0.125
-0.145,-0.125
-0.135,-0.125
-0.145,-0.125
-0.145,-0.125
-0.135,-0.125
-0.135,-0.125
-0.135,-0.125
-0.125,-0.115
-0.125,-0.125
-0.125,-0.125
-0.125,-0.115
-0.135,-0.125
-0.125,-0.125
-0.125,-0.115
-0.125,-0.115
-0.115,-0.115
-0.105,-0.115
-0.085,-0.105
-0.075,-0.095
-0.075,-0.085
-0.065,-0.085
-0.025,-0.085
-0.025,-0.065
-0.015,-0.075
-0.025,-0.075
-0.035,-0.085
-0.055,-0.085
-0.095,-0.095
-0.125,-0.105
-0.115,-0.115
-0.135,-0.115
-0.135,-0.125
-0.135,-0.125
-0.135,-0.125
-0.145,-0.125
-0.145,-0.125
-0.135,-0.125
-0.135,-0.125
-0.135,-0.125
-0.135,-0.125
-0.185,-0.125
0.005,-0.125
0.445,-0.095
0.955,-0.045
0.835,-0.065
0.195,-0.225
-0.445,-0.385
-0.295,-0.445
-0.115,-0.265
-0.085,-0.095
-0.115,-0.055
-0.115,-0.055
-0.115,-0.065
-0.105,-0.065
-0.105,-0.055
-0.105,-0.055
-0.095,-0.065
-0.085,-0.055
-0.095,-0.045
-0.085,-0.045
-0.075,-0.045
-0.055,-0.035
-0.045,-0.035
-0.045,-0.035
-0.035,-0.025
-0.025,-0.015
-0.025,-0.015
-0.005,-0.005
0.015,-0.005
0.025,0.005
0.045,0.005
0.065,0.025
0.075,0.035
0.095,0.045
0.105,0.065
0.125,0.065
0.145,0.085
0.165,0.085
0.175,0.085
0.175,0.085
0.165,0.075
0.155,0.065
0.105,0.045
0.065,0.015
0.045,-0.015
-0.005,-0.025
-0.045,-0.045
-0.065,-0.065
-0.095,-0.095
-0.105,-0.095
-0.115,-0.095
-0.125,-0.095
-0.125,-0.105
-0.115,-0.095
-0.115,-0.095
-0.105,-0.105
-0.115,-0.105
-0.105,-0.095
-0.105,-0.095
-0.115,-0.095
-0.105,-0.095
-0.095,-0.095
-0.095,-0.095
-0.085,-0.085
-0.085,-0.085
-0.085,-0.085
-0.085,-0.085
-0.095,-0.085
-0.095,-0.085
-0.085,-0.085
-0.095,-0.085
-0.095,-0.085
-0.105,-0.095
-0.105,-0.085
-0.105,-0.085
-0.125,-0.095
-0.115,-0.095
-0.115,-0.095
-0.115,-0.085
-0.105,-0.095
-0.115,-0.095
-0.115,-0.095
-0.115,-0.095
-0.125,-0.095
-0.105,-0.095
-0.095,-0.095
-0.085,-0.085
-0.065,-0.075
-0.065,-0.075
-0.055,-0.065
-0.035,-0.055
-0.025,-0.045
-0.005,-0.055
-0.015,-0.055
-0.015,-0.065
-0.045,-0.065
-0.075,-0.075
-0.105,-0.075
-0.115,-0.085
-0.125,-0.105
-0.125,-0.115
-0.115,-0.105
-0.125,-0.105
-0.125,-0.105
-0.125,-0.105
-0.125,-0.105
-0.125,-0.105
-0.125,-0.105
-0.115,-0.105
-0.105,-0.105
-0.155,-0.105
-0.075,-0.105
0.265,-0.105
0.825,-0.045
1.085,-0.005
0.445,-0.095
-0.195,-0.305
-0.365,-0.415
-0.135,-0.325
-0.065,-0.115
-0.075,-0.035
-0.085,-0.035
-0.095,-0.045
-0.085,-0.045
-0.075,-0.045
-0.065,-0.035
-0.065,-0.035
-0.065,-0.035
-0.055,-0.035
-0.055,-0.025
-0.055,-0.025
-0.035,-0.025
-0.025,-0.025
-0.015,-0.015
-0.005,-0.005
0.005,-0.005
0.015,-0.005
0.025,0.025
0.015,0.015
0.045,0.025
0.065,0.035
0.095,0.055
0.115,0.055
0.135,0.065
0.155,0.075
0.175,0.095
0.175,0.095
0.195,0.095
0.205,0.095
0.205,0.105
0.185,0.085
0.145,0.065
0.095,0.045
0.035,0.015
-0.025,-0.015
-0.055,-0.045
-0.085,-0.065
-0.105,-0.075
-0.115,-0.085
-0.135,-0.095
-0.135,-0.105
-0.135,-0.095
-0.145,-0.095
-0.135,-0.105
-0.135,-0.105
-0.135,-0.095
-0.135,-0.105
-0.135,-0.105
-0.135,-0.105
-0.125,-0.105
-0.125,-0.105
-0.125,-0.105
-0.115,-0.105
-0.115,-0.095
-0.115,-0.095
-0.115,-0.095
-0.105,-0.095
-0.105,-0.095
-0.115,-0.085
-0.115,-0.095
-0.115,-0.095
-0.115,-0.095
-0.115,-0.095
-0.125,-0.095
-0.125,-0.095
-0.125,-0.095
-0.135,-0.095
-0.125,-0.095
-0.125,-0.095
-0.115,-0.095
-0.125,-0.105
-0.125,-0.105
-0.125,-0.105
-0.095,-0.095
-0.105,-0.095
-0.085,-0.085
-0.075,-0.075
-0.065,-0.065
-0.045,-0.065
-0.025,-0.055
-0.015,-0.055
-0.015,-0.045
-0.035,-0.065
-0.055,-0.065
-0.075,-0.075
-0.115,-0.075
-0.115,-0.085
-0.125,-0.105
-0.145,-0.105
-0.125,-0.105
-0.145,-0.115
-0.135,-0.115
-0.135,-0.115
-0.125,-0.105
-0.125,-0.105
-0.125,-0.105
-0.135,-0.105
-0.125,-0.105
-0.145,-0.105
-0.175,-0.105
-0.015,-0.115
0.375,-0.085
0.865,-0.045
1.015,0.005
0.375,-0.105
-0.265,-0.305
-0.395,-0.415
-0.165,-0.365
-0.075,-0.145
-0.075,-0.055
-0.095,-0.045
-0.095,-0.055
-0.095,-0.065
-0.095,-0.055
-0.075,-0.055
-0.095,-0.045
-0.075,-0.055
-0.065,-0.045
-0.065,-0.045
-0.055,-0.045
-0.055,-0.045
-0.055,-0.035
-0.025,-0.025
-0.035,-0.025
-0.015,-0.025
-0.005,-0.015
0.015,-0.015
0.025,-0.005
0.035,-0.005
0.055,0.015
0.075,0.025
0.085,0.025
0.115,0.035
0.135,0.055
0.145,0.065
0.175,0.065
0.185,0.065
0.195,0.075
0.185,0.075
0.175,0.065
0.165,0.045
0.125,0.045
0.085,0.015
0.035,-0.015
-0.025,-0.045
-0.055,-0.065
-0.085,-0.075
-0.115,-0.095
-0.125,-0.105
-0.125,-0.105
-0.125,-0.105
-0.135,-0.105
-0.125,-0.115
-0.125,-0.105
-0.125,-0.115
-0.135,-0.115
-0.135,-0.115
-0.125,-0.115
-0.125,-0.115
-0.115,-0.105
-0.115,-0.115
-0.115,-0.115
-0.105,-0.105
-0.115,-0.105
-0.105,-0.115
-0.105,-0.115
-0.105,-0.105
-0.105,-0.105
-0.105,-0.115
-0.115,-0.105
-0.105,-0.105
-0.115,-0.105
-0.115,-0.115
-0.115,-0.115
-0.115,-0.105
-0.115,-0.115
-0.125,-0.115
-0.115,-0.115
-0.125,-0.115
-0.125,-0.115
-0.105,-0.115
-0.095,-0.105
-0.085,-0.105
-0.075,-0.105
-0.075,-0.095
-0.055,-0.085
-0.025,-0.075
-0.025,-0.075
-0.025,-0.085
-0.015,-0.085
-0.035,-0.085
-0.065,-0.095
-0.105,-0.105
-0.115,-0.105
-0.135,-0.125
-0.135,-0.135
-0.125,-0.145
-0.125,-0.125
-0.125,-0.135
-0.135,-0.135
-0.135,-0.135
-0.125,-0.135
-0.145,-0.135
-0.125,-0.135
-0.115,-0.135
-0.125,-0.125
-0.165,-0.125
0.035,-0.135
0.495,-0.105
0.975,-0.035
0.815,-0.025
0.175,-0.195
-0.465,-0.375
-0.305,-0.455
-0.095,-0.305
-0.065,-0.115
-0.085,-0.065
-0.085,-0.065
-0.095,-0.075
-0.095,-0.085
-0.085,-0.075
-0.065,-0.065
-0.065,-0.075
-0.065,-0.075
-0.055,-0.075
-0.045,-0.065
-0.055,-0.065
-0.045,-0.065
-0.025,-0.055
-0.015,-0.055
-0.015,-0.055
0.005,-0.055
0.005,-0.045
0.025,-0.035
0.035,-0.035
0.055,-0.025
0.075,-0.015
0.105,-0.005
0.115,0.005
0.125,0.015
0.145,0.025
0.165,0.025
0.165,0.025
0.185,0.035
0.185,0.035
0.195,0.035
0.175,0.025
0.135,0.005
0.085,-0.015
0.035,-0.045
-0.015,-0.065
-0.045,-0.095
-0.075,-0.105
-0.095,-0.105
-0.105,-0.115
-0.115,-0.125
-0.115,-0.135
-0.115,-0.125
-0.115,-0.125
-0.115,-0.125
-0.105,-0.135
-0.115,-0.125
-0.115,-0.125
-0.105,-0.135
-0.105,-0.135
-0.105,-0.125
-0.095,-0.125
-0.105,-0.135
-0.105,-0.125
-0.095,-0.125
-0.085,-0.125
-0.085,-0.125
-0.095,-0.125
-0.085,-0.125
-0.095,-0.115
-0.105,-0.125
-0.095,-0.125
-0.095,-0.125
-0.095,-0.115
-0.095,-0.125
-0.105,-0.135
-0.105,-0.125
-0.105,-0.125
-0.105,-0.125
-0.105,-0.125
-0.095,-0.125
-0.105,-0.125
-0.085,-0.125
-0.075,-0.125
-0.065,-0.105
-0.045,-0.105
-0.055,-0.095
-0.035,-0.085
-0.005,-0.075
0.005,-0.065
0.005,-0.085
0.005,-0.085
-0.025,-0.095
-0.035,-0.085
-0.085,-0.105
-0.095,-0.115
-0.105,-0.125
-0.115,-0.125
-0.115,-0.135
-0.105,-0.135
-0.115,-0.125
-0.105,-0.125
-0.115,-0.125
-0.115,-0.125
-0.105,-0.125
-0.105,-0.125
-0.095,-0.125
-0.105,-0.125
-0.135,-0.115
0.085,-0.125
0.575,-0.095
1.025,-0.035
0.775,-0.055
0.135,-0.235
-0.435,-0.385
-0.255,-0.445
-0.055,-0.245
-0.035,-0.095
-0.055,-0.065
-0.055,-0.065
-0.055,-0.065
-0.055,-0.065
-0.055,-0.075
-0.045,-0.065
-0.035,-0.055
-0.035,-0.055
-0.035,-0.055
-0.025,-0.055
-0.015,-0.055
-0.005,-0.045
-0.005,-0.045
0.005,-0.035
0.025,-0.025
0.025,-0.025
0.035,-0.025
0.055,-0.015
0.075,-0.005
0.085,-0.005
0.105,0.005
0.125,0.015
0.145,0.025
0.165,0.045
0.175,0.055
0.205,0.055
0.215,0.065
0.225,0.065
0.225,0.065
0.215,0.055
0.185,0.055
0.145,0.025
0.085,-0.005
0.045,-0.035
0.005,-0.055
-0.035,-0.065
-0.065,-0.085
-0.085,-0.105
-0.095,-0.105
-0.105,-0.115
-0.105,-0.115
-0.095,-0.125
-0.095,-0.105
-0.095,-0.105
-0.095,-0.115
-0.095,-0.115
-0.085,-0.105
-0.095,-0.105
-0.095,-0.105
-0.085,-0.105
-0.075,-0.105
-0.075,-0.105
-0.075,-0.105
-0.075,-0.105
-0.075,-0.095
-0.085,-0.095
-0.075,-0.095
-0.075,-0.105
-0.065,-0.095
-0.065,-0.105
-0.085,-0.105
-0.085,-0.105
-0.075,-0.105
-0.095,-0.105
-0.095,-0.105
-0.095,-0.115
-0.085,-0.105
-0.095,-0.105
-0.085,-0.105
-0.095,-0.115
-0.085,-0.105
-0.095,-0.105
-0.085,-0.105
-0.055,-0.105
-0.055,-0.085
-0.045,-0.095
-0.035,-0.085
-0.025,-0.085
0.005,-0.075
0.015,-0.065
-0.015,-0.065
0.005,-0.085
-0.025,-0.075
-0.045,-0.085
-0.075,-0.085
-0.095,-0.115
-0.105,-0.115
-0.115,-0.115
-0.125,-0.125
-0.115,-0.125
-0.115,-0.125
-0.115,-0.125
-0.115,-0.125
-0.125,-0.125
-0.115,-0.125
-0.115,-0.125
-0.115,-0.125
-0.135,-0.125
-0.135,-0.115
0.125,-0.125
0.605,-0.085
1.085,-0.025
0.745,-0.075
0.105,-0.245
-0.445,-0.405
-0.225,-0.415
-0.075,-0.185
-0.065,-0.075
-0.085,-0.055
-0.085,-0.065
-0.085,-0.055
-0.095,-0.055
-0.085,-0.065
-0.075,-0.065
-0.075,-0.055
-0.065,-0.055
-0.065,-0.055
-0.055,-0.045
-0.055,-0.035
-0.055,-0.045
-0.045,-0.045
-0.025,-0.035
-0.015,-0.025
-0.005,-0.025
0.005,-0.015
0.015,-0.015
0.035,0.005
0.045,0.005
0.065,0.015
0.085,0.025
0.105,0.045
0.125,0.045
0.145,0.065
0.175,0.065
0.185,0.075
0.205,0.085
0.195,0.075
0.205,0.075
0.175,0.065
0.125,0.045
0.075,0.015
0.015,-0.025
-0.035,-0.045
-0.065,-0.065
-0.095,-0.085
-0.115,-0.105
-0.125,-0.105
-0.135,-0.115
-0.135,-0.115
-0.145,-0.125
-0.145,-0.115
-0.145,-0.115
-0.155,-0.115
-0.145,-0.135
-0.135,-0.125
-0.145,-0.115
-0.135,-0.125
-0.135,-0.125
-0.125,-0.115
-0.115,-0.115
-0.135,-0.115
-0.115,-0.125
-0.115,-0.115
-0.115,-0.105
-0.105,-0.115
-0.085,-0.115
-0.075,-0.105
-0.005,-0.085
0.065,-0.065
0.355,-0.005
0.555,0.095
0.715,0.145
0.845,0.135
0.985,0.065
1.245,0.025
1.315,0.045
1.145,-0.025
0.835,-0.215
0.695,-0.375
0.625,-0.405
0.145,-0.275
-0.215,-0.165
-0.335,-0.105
-0.335,-0.095
-0.335,-0.095
-0.335,-0.095
-0.335,-0.075
-0.315,-0.075
-0.305,-0.065
-0.305,-0.065
-0.315,-0.065
-0.325,-0.075
-0.355,-0.075
-0.375,-0.075
-0.425,-0.075
-0.445,-0.095
-0.475,-0.095
-0.495,-0.105
-0.515,-0.095
-0.555,-0.095
-0.595,-0.095
-0.605,-0.085
-0.625,-0.085
-0.655,-0.075
-0.665,-0.065
-0.655,-0.055
-0.625,-0.035
-0.585,-0.025
-0.535,-0.025
-0.465,-0.015
-0.385,0.005
-0.315,-0.005
-0.265,-0.015
-0.225,-0.025
-0.195,-0.035
-0.175,-0.065
-0.175,-0.075
-0.155,-0.095
-0.155,-0.105
-0.165,-0.115
-0.165,-0.125
-0.165,-0.135
-0.165,-0.125
-0.165,-0.125
-0.165,-0.125
-0.155,-0.135
-0.145,-0.125
-0.155,-0.125
-0.135,-0.125
-0.145,-0.125
-0.135,-0.125
-0.135,-0.115
-0.145,-0.115
-0.135,-0.125
-0.125,-0.125
-0.125,-0.125
-0.125,-0.125
-0.125,-0.125
-0.125,-0.125
-0.125,-0.115
-0.135,-0.125
-0.125,-0.125
-0.125,-0.125
-0.125,-0.115
-0.115,-0.125
-0.125,-0.125
-0.125,-0.125
-0.115,-0.125
-0.125,-0.125
-0.125,-0.125
-0.115,-0.125
-0.115,-0.115
-0.115,-0.125
-0.125,-0.125
-0.115,-0.125
-0.115,-0.115
-0.125,-0.115
-0.115,-0.125
-0.115,-0.115
-0.105,-0.115
-0.105,-0.115
-0.115,-0.115
-0.105,-0.115
-0.105,-0.115
-0.115,-0.115
-0.105,-0.115
-0.105,-0.115
-0.105,-0.105
-0.105,-0.115
-0.105,-0.115
-0.095,-0.115
-0.105,-0.115
-0.105,-0.115
-0.095,-0.115
-0.095,-0.105
-0.105,-0.105
-0.095,-0.105
-0.105,-0.115
-0.095,-0.105
-0.105,-0.105
-0.105,-0.105
-0.095,-0.115
-0.095,-0.105
-0.085,-0.105
-0.095,-0.105
-0.095,-0.105
-0.095,-0.105
-0.095,-0.105
-0.095,-0.105
-0.095,-0.105
-0.095,-0.095
-0.085,-0.105
-0.085,-0.105
-0.095,-0.095
-0.085,-0.095
-0.085,-0.105
-0.065,-0.105
-0.055,-0.085
-0.045,-0.075
-0.025,-0.085
-0.025,-0.075
0.005,-0.075
0.025,-0.055
0.005,-0.055
0.015,-0.065
0.005,-0.075
-0.015,-0.065
-0.045,-0.085
-0.085,-0.085
-0.085,-0.105
-0.095,-0.105
-0.115,-0.105
-0.105,-0.115
-0.105,-0.115
-0.105,-0.115
-0.105,-0.115
-0.105,-0.115
-0.105,-0.115
-0.095,-0.105
-0.125,-0.115
-0.145,-0.115
0.065,-0.115
0.485,-0.075
0.935,-0.025
0.855,-0.025
0.215,-0.185
-0.375,-0.355
-0.325,-0.435
-0.115,-0.325
-0.055,-0.115
-0.065,-0.055
-0.075,-0.055
-0.085,-0.065
-0.085,-0.065
-0.075,-0.065
-0.085,-0.055
-0.085,-0.065
-0.075,-0.055
-0.065,-0.055
-0.055,-0.055
-0.055,-0.055
-0.045,-0.055
-0.035,-0.045
-0.035,-0.045
-0.025,-0.045
-0.015,-0.045
-0.005,-0.025
0.005,-0.025
0.015,-0.025
0.025,-0.015
0.045,-0.005
0.045,0.005
0.075,0.005
0.085,0.025
0.105,0.035
0.115,0.035
0.125,0.045
0.115,0.045
0.135,0.055
0.125,0.045
0.135,0.035
0.125,0.025
0.095,0.005
0.075,-0.015
0.025,-0.035
-0.005,-0.065
-0.035,-0.075
-0.065,-0.095
-0.075,-0.105
-0.085,-0.105
-0.095,-0.115
-0.095,-0.115
-0.105,-0.115
-0.095,-0.115
-0.095,-0.115
-0.105,-0.115
-0.095,-0.115
-0.085,-0.125
-0.075,-0.115
-0.075,-0.115
-0.075,-0.115
-0.085,-0.115
-0.075,-0.115
-0.095,-0.115
-0.085,-0.115
-0.085,-0.115
-0.075,-0.115
-0.085,-0.115
-0.095,-0.115
-0.095,-0.115
-0.095,-0.115
-0.115,-0.125
-0.115,-0.125
-0.115,-0.135
-0.115,-0.125
-0.105,-0.125
-0.115,-0.125
-0.125,-0.135
-0.115,-0.125
-0.125,-0.135
-0.115,-0.135
-0.125,-0.135
-0.115,-0.125
-0.105,-0.135
-0.095,-0.135
-0.085,-0.125
-0.075,-0.115
-0.085,-0.115
-0.065,-0.105
-0.035,-0.105
-0.015,-0.095
-0.015,-0.085
-0.025,-0.105
-0.025,-0.105
-0.045,-0.095
-0.075,-0.105
-0.115,-0.115
-0.125,-0.135
-0.135,-0.145
-0.135,-0.145
-0.135,-0.155
-0.135,-0.155
-0.135,-0.145
-0.145,-0.145
-0.135,-0.145
-0.135,-0.155
-0.135,-0.145
-0.135,-0.145
-0.125,-0.145
-0.135,-0.155
-0.175,-0.145
-0.025,-0.145
0.365,-0.135
0.865,-0.095
0.915,-0.025
0.275,-0.155
-0.345,-0.335
-0.405,-0.445
-0.165,-0.415
-0.075,-0.195
-0.095,-0.095
-0.095,-0.095
-0.105,-0.095
-0.105,-0.095
-0.095,-0.095
-0.095,-0.105
-0.085,-0.095
-0.085,-0.085
-0.085,-0.085
-0.075,-0.095
-0.065,-0.085
-0.065,-0.075
-0.055,-0.075
-0.045,-0.085
-0.035,-0.075
-0.025,-0.065
-0.025,-0.055
-0.005,-0.065
0.005,-0.055
0.025,-0.035
0.045,-0.035
0.055,-0.035
0.065,-0.015
0.095,-0.005
0.085,0.005
0.105,0.005
0.125,0.005
0.135,0.015
0.145,0.025
0.135,0.015
0.115,0.005
0.095,0.005
0.035,-0.025
-0.005,-0.055
-0.035,-0.075
-0.075,-0.095
-0.095,-0.105
-0.125,-0.135
-0.145,-0.135
-0.145,-0.135
-0.165,-0.145
-0.155,-0.155
-0.155,-0.145
-0.155,-0.145
-0.145,-0.145
-0.155,-0.145
-0.155,-0.145
-0.155,-0.145
-0.155,-0.135
-0.145,-0.145
-0.145,-0.135
-0.135,-0.135
-0.135,-0.135
-0.135,-0.135
-0.145,-0.135
-0.135,-0.135
-0.145,-0.135
-0.135,-0.135
-0.145,-0.135
-0.145,-0.135
-0.135,-0.135
-0.155,-0.135
-0.145,-0.135
-0.145,-0.135
-0.155,-0.135
-0.155,-0.145
-0.155,-0.135
-0.155,-0.135
-0.145,-0.135
-0.155,-0.145
-0.155,-0.135
-0.155,-0.135
-0.165,-0.135
-0.155,-0.145
-0.145,-0.135
-0.135,-0.135
-0.115,-0.125
-0.115,-0.125
-0.105,-0.115
-0.095,-0.105
-0.085,-0.095
-0.055,-0.095
-0.045,-0.085
-0.055,-0.085
-0.035,-0.095
-0.075,-0.105
-0.095,-0.105
-0.135,-0.105
-0.155,-0.125
-0.155,-0.145
-0.155,-0.135
-0.165,-0.145
-0.155,-0.145
-0.165,-0.145
-0.165,-0.135
-0.165,-0.135
-0.175,-0.135
-0.165,-0.145
-0.155,-0.135
-0.155,-0.135
-0.155,-0.135
-0.195,-0.135
-0.005,-0.135
0.465,-0.105
0.965,-0.045
0.805,-0.055
0.165,-0.205
-0.465,-0.395
-0.295,-0.445
-0.115,-0.255
-0.095,-0.095
-0.125,-0.065
-0.135,-0.075
-0.125,-0.075
-0.115,-0.075
-0.115,-0.075
-0.115,-0.075
-0.115,-0.075
-0.095,-0.065
-0.105,-0.065
-0.095,-0.055
-0.085,-0.055
-0.065,-0.045
-0.055,-0.045
-0.045,-0.045
-0.045,-0.035
-0.025,-0.035
-0.025,-0.025
-0.015,-0.015
0.015,-0.015
0.035,0.005
0.055,0.005
0.065,0.005
0.085,0.025
0.105,0.045
0.115,0.045
0.135,0.065
0.145,0.065
0.165,0.065
0.165,0.065
0.155,0.045
0.115,0.045
0.075,0.025
0.015,-0.005
-0.025,-0.045
-0.055,-0.065
-0.095,-0.085
-0.115,-0.095
-0.135,-0.105
-0.145,-0.115
-0.145,-0.115
-0.165,-0.125
-0.155,-0.125
-0.155,-0.125
-0.155,-0.125
-0.145,-0.125
-0.145,-0.125
-0.145,-0.125
-0.135,-0.115
-0.145,-0.115
-0.145,-0.115
-0.135,-0.125
-0.125,-0.105
-0.125,-0.105
-0.125,-0.115
-0.125,-0.115
-0.125,-0.105
-0.135,-0.105
-0.125,-0.115
-0.125,-0.105
-0.115,-0.105
-0.115,-0.105
-0.135,-0.115
-0.135,-0.115
-0.135,-0.115
-0.145,-0.115
-0.135,-0.115
-0.135,-0.115
-0.135,-0.115
-0.135,-0.115
-0.135,-0.115
-0.135,-0.115
-0.135,-0.105
-0.145,-0.115
-0.135,-0.115
-0.135,-0.115
-0.125,-0.115
-0.115,-0.115
-0.105,-0.115
-0.085,-0.105
-0.075,-0.085
-0.085,-0.085
-0.075,-0.085
-0.045,-0.075
-0.025,-0.065
-0.005,-0.065
-0.025,-0.075
-0.025,-0.085
-0.055,-0.075
-0.085,-0.085
-0.115,-0.095
-0.115,-0.105
-0.125,-0.115
-0.125,-0.125
-0.135,-0.125
-0.135,-0.125
-0.125,-0.115
-0.145,-0.115
-0.135,-0.115
-0.135,-0.115
-0.125,-0.115
-0.115,-0.115
-0.125,-0.115
-0.115,-0.115
-0.165,-0.105
-0.065,-0.115
0.285,-0.105
0.845,-0.055
1.095,0.005
0.455,-0.075
-0.185,-0.285
-0.395,-0.415
-0.155,-0.355
-0.075,-0.155
-0.075,-0.045
-0.085,-0.045
-0.085,-0.045
-0.085,-0.055
-0.085,-0.055
-0.075,-0.055
-0.075,-0.045
-0.065,-0.045
-0.065,-0.045
-0.055,-0.045
-0.045,-0.035
-0.035,-0.025
-0.025,-0.025
-0.025,-0.025
-0.005,-0.015
0.005,-0.015
0.005,-0.005
0.015,-0.005
0.045,0.005
0.055,0.015
0.065,0.025
0.085,0.025
0.105,0.045
0.115,0.055
0.135,0.065
0.165,0.075
0.185,0.095
0.195,0.095
0.195,0.095
0.195,0.085
0.175,0.085
0.145,0.065
0.095,0.045
0.045,0.015
0.005,-0.015
-0.035,-0.035
-0.065,-0.055
-0.095,-0.075
-0.095,-0.085
-0.115,-0.085
-0.125,-0.095
-0.115,-0.105
-0.115,-0.095
-0.125,-0.105
-0.115,-0.105
-0.125,-0.105
-0.115,-0.105
-0.115,-0.095
-0.115,-0.095
-0.105,-0.105
-0.105,-0.095
-0.095,-0.095
-0.095,-0.095
-0.095,-0.095
-0.095,-0.095
-0.105,-0.095
-0.105,-0.085
-0.095,-0.095
-0.095,-0.085
-0.095,-0.095
-0.095,-0.085
-0.095,-0.095
-0.095,-0.095
-0.095,-0.095
-0.115,-0.095
-0.105,-0.095
-0.105,-0.095
-0.105,-0.095
-0.105,-0.095
-0.105,-0.105
-0.105,-0.105
-0.115,-0.095
-0.115,-0.105
-0.115,-0.105
-0.105,-0.105
-0.115,-0.095
-0.105,-0.105
-0.105,-0.105
-0.105,-0.105
-0.105,-0.095
-0.105,-0.105
-0.105,-0.105
-0.095,-0.105
-0.085,-0.095
-0.065,-0.095
-0.065,-0.085
-0.055,-0.075
-0.045,-0.065
-0.045,-0.065
-0.015,-0.065
0.015,-0.055
0.015,-0.045
0.005,-0.055
-0.015,-0.075
-0.055,-0.065
-0.075,-0.095
-0.095,-0.085
-0.095,-0.095
-0.105,-0.105
-0.095,-0.105
-0.105,-0.115
-0.105,-0.115
-0.105,-0.105
-0.115,-0.115
-0.105,-0.115
-0.105,-0.115
-0.095,-0.105
-0.095,-0.105
-0.095,-0.105
-0.125,-0.105
-0.105,-0.095
0.115,-0.115
0.605,-0.075
1.075,0.005
0.795,-0.015
0.155,-0.195
-0.395,-0.375
-0.205,-0.425
-0.055,-0.195
-0.055,-0.065
-0.065,-0.045
-0.075,-0.055
-0.065,-0.045
-0.065,-0.055
-0.055,-0.055
-0.055,-0.055
-0.055,-0.045
-0.055,-0.045
-0.045,-0.035
-0.035,-0.035
-0.025,-0.025
-0.015,-0.035
-0.005,-0.025
-0.005,-0.025
0.005,-0.015
0.005,-0.015
0.025,-0.015
0.045,-0.005
0.055,0.005
0.075,0.005
0.095,0.015
0.105,0.025
0.125,0.045
0.135,0.055
0.155,0.065
0.175,0.065
0.195,0.075
0.195,0.065
0.205,0.075
0.195,0.065
0.185,0.065
0.145,0.045
0.085,0.025
0.045,-0.005
0.015,-0.025
-0.025,-0.045
-0.055,-0.065
-0.075,-0.085
-0.095,-0.095
-0.095,-0.105
-0.115,-0.105
-0.105,-0.115
-0.105,-0.115
-0.105,-0.105
-0.105,-0.105
-0.105,-0.125
-0.095,-0.105
-0.095,-0.105
-0.095,-0.105
-0.085,-0.115
-0.085,-0.105
-0.095,-0.095
-0.075,-0.105
-0.085,-0.105
-0.075,-0.105
-0.085,-0.095
-0.085,-0.095
-0.075,-0.105
-0.075,-0.105
-0.075,-0.105
-0.085,-0.105
-0.095,-0.105
-0.085,-0.105
-0.095,-0.115
-0.095,-0.105
-0.095,-0.115
-0.095,-0.115
-0.085,-0.115
-0.095,-0.115
-0.095,-0.115
-0.095,-0.105
-0.105,-0.115
-0.095,-0.115
-0.095,-0.115
-0.095,-0.115
-0.085,-0.115
-0.065,-0.115
-0.055,-0.105
-0.035,-0.095
-0.045,-0.085
-0.025,-0.085
0.005,-0.085
0.015,-0.065
0.015,-0.075
0.015,-0.085
-0.005,-0.095
-0.035,-0.085
-0.075,-0.095
-0.085,-0.105
-0.095,-0.125
-0.095,-0.125
-0.105,-0.135
-0.095,-0.125
-0.105,-0.135
-0.105,-0.135
-0.105,-0.135
-0.115,-0.135
-0.105,-0.135
-0.095,-0.125
-0.095,-0.125
-0.095,-0.135
-0.105,-0.125
-0.115,-0.125
0.075,-0.135
0.515,-0.105
0.995,-0.025
0.895,-0.005
0.255,-0.175
-0.385,-0.355
-0.295,-0.455
-0.085,-0.315
-0.045,-0.115
-0.055,-0.065
-0.065,-0.075
-0.055,-0.065
-0.055,-0.075
-0.055,-0.075
-0.045,-0.075
-0.045,-0.065
-0.045,-0.065
-0.035,-0.065
-0.025,-0.065
-0.015,-0.055
-0.015,-0.055
-0.005,-0.055
0.005,-0.055
0.015,-0.045
0.015,-0.045
0.025,-0.035
0.045,-0.035
0.065,-0.025
0.075,-0.025
0.095,-0.015
0.115,-0.005
0.135,0.015
0.145,0.025
0.155,0.025
0.185,0.025
0.195,0.035
0.205,0.045
0.205,0.045
0.195,0.035
0.185,0.025
0.135,0.005
0.095,-0.015
0.045,-0.045
0.005,-0.055
-0.025,-0.085
-0.055,-0.105
-0.075,-0.115
-0.085,-0.115
-0.095,-0.115
-0.095,-0.125
-0.105,-0.135
-0.095,-0.125
-0.085,-0.125
-0.085,-0.125
-0.085,-0.135
-0.085,-0.125
-0.095,-0.125
-0.085,-0.125
-0.075,-0.125
-0.065,-0.115
-0.075,-0.115
-0.075,-0.125
-0.065,-0.115
-0.065,-0.115
-0.065,-0.115
-0.075,-0.115
-0.065,-0.115
-0.065,-0.115
-0.065,-0.115
-0.065,-0.125
-0.075,-0.125
-0.075,-0.125
-0.085,-0.125
-0.085,-0.125
-0.085,-0.125
-0.075,-0.125
-0.075,-0.125
-0.075,-0.125
-0.085,-0.125
-0.075,-0.115
-0.095,-0.125
-0.085,-0.125
-0.075,-0.125
-0.075,-0.115
-0.075,-0.125
-0.075,-0.125
-0.075,-0.125
-0.045,-0.115
-0.055,-0.115
-0.035,-0.115
-0.025,-0.105
-0.015,-0.095
0.005,-0.095
0.025,-0.085
0.025,-0.075
0.025,-0.075
0.025,-0.085
-0.015,-0.095
-0.015,-0.095
-0.055,-0.095
-0.065,-0.115
-0.075,-0.125
-0.085,-0.135
-0.075,-0.125
-0.095,-0.135
-0.085,-0.125
-0.085,-0.135
-0.075,-0.135
-0.075,-0.125
-0.085,-0.125
-0.085,-0.135
-0.065,-0.125
-0.065,-0.125
-0.115,-0.125
-0.055,-0.125
0.235,-0.125
0.735,-0.085
1.115,-0.015
0.655,-0.065
0.015,-0.255
-0.405,-0.405
-0.175,-0.415
-0.025,-0.215
-0.015,-0.085
-0.035,-0.055
-0.035,-0.065
-0.035,-0.075
-0.035,-0.065
-0.025,-0.065
-0.035,-0.065
-0.025,-0.065
-0.025,-0.055
-0.005,-0.045
0.005,-0.045
0.005,-0.055
0.015,-0.045
0.025,-0.035
0.015,-0.045
0.035,-0.035
0.045,-0.035
0.055,-0.025
0.075,-0.015
0.075,-0.015
0.105,-0.005
0.115,0.005
0.125,0.015
0.145,0.015
0.175,0.025
0.185,0.045
0.215,0.045
0.215,0.055
0.225,0.065
0.235,0.065
0.215,0.065
0.195,0.045
0.165,0.035
0.115,0.005
0.065,-0.025
0.025,-0.055
-0.005,-0.075
-0.035,-0.085
-0.065,-0.095
-0.065,-0.115
-0.065,-0.115
-0.075,-0.105
-0.075,-0.115
-0.075,-0.125
-0.075,-0.115
-0.075,-0.115
-0.085,-0.115
-0.075,-0.115
-0.065,-0.115
-0.065,-0.105
-0.065,-0.115
-0.065,-0.115
-0.055,-0.105
-0.055,-0.105
-0.065,-0.105
-0.055,-0.115
-0.045,-0.105
-0.055,-0.105
-0.055,-0.105
-0.055,-0.105
-0.055,-0.105
-0.065,-0.105
-0.075,-0.105
-0.075,-0.115
-0.065,-0.115
-0.075,-0.105
-0.075,-0.105
-0.075,-0.115
-0.075,-0.105
-0.085,-0.115
-0.085,-0.115
-0.075,-0.115
-0.075,-0.115
-0.075,-0.115
-0.085,-0.115
-0.075,-0.115
-0.075,-0.115
-0.095,-0.105
-0.075,-0.115
-0.075,-0.125
-0.075,-0.105
-0.075,-0.115
-0.055,-0.115
-0.045,-0.115
-0.025,-0.095
-0.025,-0.095
-0.015,-0.085
-0.005,-0.085
0.025,-0.075
0.035,-0.065
0.025,-0.075
0.025,-0.075
0.015,-0.085
-0.025,-0.085
-0.055,-0.095
-0.065,-0.105
-0.075,-0.115
-0.085,-0.115
-0.095,-0.125
-0.085,-0.135
-0.095,-0.125
-0.095,-0.125
-0.105,-0.125
-0.095,-0.135
-0.095,-0.125
-0.095,-0.115
-0.075,-0.115
-0.085,-0.125
-0.095,-0.125
-0.115,-0.115
0.075,-0.125
0.515,-0.095
1.075,-0.025
0.905,-0.035
0.265,-0.205
-0.375,-0.375
-0.255,-0.435
-0.075,-0.255
-0.045,-0.095
-0.055,-0.065
-0.065,-0.055
-0.065,-0.065
-0.055,-0.065
-0.055,-0.065
-0.055,-0.055
-0.045,-0.055
-0.055,-0.055
-0.045,-0.055
-0.025,-0.045
-0.025,-0.045
-0.015,-0.045
-0.005,-0.045
0.005,-0.025
0.005,-0.025
0.015,-0.025
0.035,-0.015
0.055,-0.005
0.075,-0.005
0.075,0.005
0.095,0.005
0.115,0.035
0.125,0.035
0.145,0.045
0.175,0.045
0.195,0.075
0.215,0.075
0.205,0.075
0.205,0.065
0.205,0.075
0.165,0.055
0.125,0.035
0.075,0.005
0.035,-0.025
-0.015,-0.055
-0.045,-0.075
-0.075,-0.095
-0.095,-0.105
-0.115,-0.105
-0.115,-0.115
-0.115,-0.125
-0.115,-0.125
-0.115,-0.125
-0.125,-0.125
-0.115,-0.125
-0.115,-0.115
-0.115,-0.125
-0.125,-0.115
-0.115,-0.125
-0.105,-0.115
-0.105,-0.115
-0.105,-0.115
-0.105,-0.115
-0.105,-0.105
-0.105,-0.105
-0.105,-0.115
-0.095,-0.115
-0.095,-0.105
-0.095,-0.115
-0.105,-0.115
-0.105,-0.115
-0.105,-0.115
-0.105,-0.115
-0.115,-0.115
-0.105,-0.125
-0.115,-0.115
-0.125,-0.115
-0.115,-0.115
-0.125,-0.125
-0.115,-0.125
-0.115,-0.115
-0.135,-0.125
-0.125,-0.125
-0.115,-0.125
-0.115,-0.125
-0.125,-0.125
-0.115,-0.125
-0.115,-0.125
-0.115,-0.125
-0.125,-0.125
-0.115,-0.125
-0.105,-0.115
-0.085,-0.115
-0.065,-0.105
-0.065,-0.095
-0.065,-0.095
-0.055,-0.085
-0.025,-0.075
-0.015,-0.075
-0.005,-0.075
-0.005,-0.075
-0.005,-0.085
-0.055,-0.095
-0.085,-0.105
-0.105,-0.105
-0.115,-0.115
-0.125,-0.125
-0.125,-0.135
-0.125,-0.125
-0.125,-0.125
-0.125,-0.135
-0.135,-0.125
-0.125,-0.125
-0.135,-0.125
-0.125,-0.125
-0.115,-0.125
-0.115,-0.115
-0.155,-0.115
-0.095,-0.135
0.215,-0.115
0.785,-0.065
1.095,0.005
0.455,-0.095
-0.185,-0.295
-0.365,-0.435
-0.145,-0.335
-0.075,-0.125
-0.075,-0.055
-0.105,-0.065
-0.105,-0.065
-0.095,-0.065
-0.085,-0.065
-0.085,-0.065
-0.075,-0.065
-0.075,-0.065
-0.065,-0.055
-0.065,-0.055
-0.065,-0.055
-0.045,-0.045
-0.035,-0.035
-0.035,-0.035
-0.025,-0.035
-0.015,-0.035
-0.005,-0.025
0.015,-0.015
0.015,-0.015
0.035,-0.005
0.055,0.005
0.075,0.025
0.095,0.025
0.115,0.035
0.135,0.055
0.145,0.065
0.165,0.065
0.185,0.065
0.185,0.075
0.185,0.075
0.175,0.065
0.125,0.045
0.095,0.025
0.045,-0.005
-0.015,-0.035
-0.055,-0.065
-0.075,-0.075
-0.105,-0.095
-0.125,-0.105
-0.135,-0.125
-0.125,-0.115
-0.145,-0.125
-0.145,-0.125
-0.135,-0.135
-0.125,-0.125
-0.125,-0.115
-0.125,-0.125
-0.125,-0.125
-0.125,-0.115
-0.125,-0.125
-0.115,-0.125
-0.115,-0.125
-0.115,-0.115
-0.105,-0.115
-0.115,-0.125
-0.115,-0.125
-0.105,-0.115
-0.125,-0.115
-0.115,-0.125
-0.115,-0.125
-0.105,-0.115
-0.105,-0.115
-0.115,-0.125
-0.125,-0.125
-0.115,-0.125
-0.135,-0.125
-0.125,-0.135
-0.125,-0.135
-0.115,-0.125
-0.115,-0.125
-0.125,-0.135
-0.135,-0.135
-0.125,-0.125
-0.135,-0.135
-0.125,-0.135
-0.125,-0.135
-0.125,-0.135
-0.115,-0.135
-0.125,-0.135
-0.125,-0.135
-0.115,-0.135
-0.135,-0.135
-0.115,-0.135
-0.085,-0.135
-0.075,-0.115
-0.065,-0.105
-0.065,-0.105
-0.065,-0.105
-0.025,-0.095
-0.025,-0.095
-0.015,-0.095
-0.015,-0.095
-0.015,-0.095
-0.045,-0.095
-0.095,-0.115
-0.115,-0.125
-0.115,-0.125
-0.135,-0.135
-0.125,-0.145
-0.125,-0.145
-0.125,-0.135
-0.125,-0.145
-0.125,-0.145
-0.125,-0.145
-0.135,-0.145
-0.135,-0.145
-0.125,-0.145
-0.115,-0.145
-0.125,-0.145
-0.165,-0.135
-0.015,-0.155
0.375,-0.125
0.935,-0.075
0.985,-0.015
0.345,-0.145
-0.295,-0.345
-0.345,-0.455
-0.145,-0.355
-0.065,-0.165
-0.075,-0.085
-0.085,-0.075
-0.095,-0.085
-0.095,-0.095
-0.085,-0.085
-0.085,-0.085
-0.075,-0.075
-0.075,-0.085
-0.065,-0.085
-0.055,-0.085
-0.055,-0.075
-0.065,-0.075
-0.035,-0.075
-0.035,-0.065
-0.025,-0.055
-0.015,-0.055
-0.015,-0.055
0.005,-0.045
0.025,-0.035
0.025,-0.035
0.045,-0.035
0.065,-0.015
0.075,-0.005
0.105,0.005
0.115,0.005
0.135,0.005
0.155,0.025
0.155,0.035
0.165,0.025
0.175,0.025
0.165,0.035
0.155,0.015
0.105,-0.005
0.065,-0.025
0.015,-0.055
-0.035,-0.075
-0.065,-0.105
-0.085,-0.115
-0.105,-0.115
-0.105,-0.135
-0.125,-0.145
-0.125,-0.145
-0.125,-0.145
-0.135,-0.145
-0.135,-0.155
-0.135,-0.145
-0.125,-0.145
-0.115,-0.145
-0.125,-0.145
-0.115,-0.145
-0.105,-0.145
-0.125,-0.145
-0.115,-0.145
-0.095,-0.145
-0.105,-0.145
-0.095,-0.145
-0.105,-0.145
-0.115,-0.145
-0.105,-0.135
-0.115,-0.135
-0.105,-0.145
-0.105,-0.145
-0.105,-0.145
-0.105,-0.145
-0.115,-0.155
-0.115,-0.145
-0.115,-0.145
-0.125,-0.155
-0.115,-0.155
-0.115,-0.155
-0.125,-0.145
-0.105,-0.155
-0.115,-0.165
-0.125,-0.155
-0.115,-0.155
-0.125,-0.155
-0.115,-0.155
-0.115,-0.155
-0.115,-0.145
-0.105,-0.155
-0.105,-0.165
-0.095,-0.155
-0.075,-0.135
-0.075,-0.135
-0.065,-0.125
-0.065,-0.125
-0.025,-0.115
-0.005,-0.115
-0.015,-0.115
-0.015,-0.115
-0.015,-0.125
-0.055,-0.125
-0.075,-0.135
-0.105,-0.135
-0.105,-0.145
-0.115,-0.165
-0.125,-0.165
-0.125,-0.165
-0.125,-0.155
-0.135,-0.165
-0.125,-0.175
-0.135,-0.165
-0.135,-0.155
-0.125,-0.165
-0.125,-0.165
-0.125,-0.155
-0.125,-0.155
-0.175,-0.155
-0.005,-0.165
0.395,-0.135
0.905,-0.065
0.915,-0.035
0.275,-0.195
-0.365,-0.375
-0.365,-0.475
-0.135,-0.365
-0.075,-0.165
-0.095,-0.095
-0.105,-0.105
-0.105,-0.105
-0.105,-0.105
-0.095,-0.095
-0.095,-0.095
-0.095,-0.105
-0.085,-0.105
-0.075,-0.095
-0.075,-0.085
-0.065,-0.085
-0.055,-0.095
-0.055,-0.085
-0.045,-0.075
-0.045,-0.075
-0.025,-0.075
-0.015,-0.065
-0.005,-0.055
0.015,-0.055
0.025,-0.045
0.045,-0.025
0.055,-0.025
0.075,-0.015
0.095,-0.005
0.115,0.005
0.135,0.015
0.145,0.015
0.155,0.015
0.155,0.025
0.135,0.005
0.115,-0.005
0.075,-0.015
0.025,-0.045
-0.005,-0.065
-0.055,-0.095
-0.095,-0.105
-0.105,-0.125
-0.135,-0.135
-0.135,-0.135
-0.135,-0.145
-0.135,-0.145
-0.145,-0.145
-0.145,-0.145
-0.145,-0.155
-0.135,-0.135
-0.145,-0.145
-0.135,-0.145
-0.135,-0.145
-0.125,-0.135
-0.115,-0.145
-0.135,-0.135
-0.115,-0.145
-0.115,-0.125
-0.125,-0.135
-0.115,-0.135
-0.105,-0.135
-0.105,-0.125
-0.085,-0.135
-0.075,-0.135
-0.045,-0.115
0.005,-0.105
0.135,-0.065
0.395,-0.015
0.555,0.065
0.695,0.085
0.795,0.085
0.985,0.035
1.195,0.025
1.245,0.045
1.065,-0.025
0.795,-0.195
0.665,-0.335
0.625,-0.395
0.285,-0.315
-0.135,-0.205
-0.305,-0.145
-0.345,-0.125
-0.345,-0.125
-0.365,-0.135
-0.355,-0.135
-0.345,-0.125
-0.345,-0.105
-0.335,-0.105
-0.335,-0.105
-0.325,-0.095
-0.305,-0.085
-0.305,-0.075
-0.305,-0.075
-0.315,-0.075
-0.325,-0.075
-0.355,-0.075
-0.405,-0.085
-0.465,-0.085
-0.505,-0.105
-0.545,-0.115
-0.565,-0.125
-0.585,-0.115
-0.595,-0.105
-0.595,-0.095
-0.595,-0.095
-0.575,-0.075
-0.535,-0.055
-0.495,-0.045
-0.435,-0.045
-0.355,-0.035
-0.295,-0.025
-0.245,-0.035
-0.215,-0.045
-0.185,-0.065
-0.155,-0.075
-0.165,-0.095
-0.155,-0.115
-0.145,-0.115
-0.155,-0.125
-0.145,-0.135
-0.155,-0.145
-0.155,-0.145
-0.145,-0.135
-0.155,-0.135
-0.145,-0.145
-0.145,-0.135
-0.135,-0.135
-0.125,-0.135
-0.125,-0.135
-0.135,-0.125
-0.125,-0.125
-0.125,-0.125
-0.125,-0.125
-0.115,-0.125
-0.115,-0.115
-0.115,-0.125
-0.115,-0.125
-0.105,-0.115
-0.115,-0.115
-0.115,-0.115
-0.105,-0.125
-0.105,-0.115
-0.105,-0.115
-0.105,-0.115
-0.105,-0.115
-0.105,-0.115
-0.105,-0.115
-0.105,-0.115
-0.095,-0.115
-0.095,-0.105
-0.095,-0.115
-0.095,-0.115
-0.095,-0.125
-0.085,-0.115
-0.095,-0.115
-0.095,-0.115
-0.085,-0.115
-0.085,-0.105
-0.085,-0.115
-0.075,-0.105
-0.085,-0.115
-0.085,-0.105
-0.085,-0.105
-0.085,-0.105
-0.085,-0.105
-0.075,-0.105
-0.075,-0.105
-0.075,-0.105
-0.085,-0.105
-0.075,-0.105
-0.075,-0.105
-0.085,-0.105
-0.075,-0.105
-0.065,-0.105
-0.075,-0.095
-0.065,-0.105
-0.075,-0.105
-0.065,-0.095
-0.075,-0.095
-0.075,-0.105
-0.065,-0.105
-0.065,-0.095
-0.065,-0.095
-0.065,-0.105
-0.055,-0.095
-0.055,-0.095
-0.065,-0.095
-0.065,-0.095
-0.055,-0.095
-0.055,-0.085
-0.055,-0.095
-0.055,-0.095
-0.055,-0.095
-0.055,-0.085
-0.055,-0.095
-0.065,-0.095
-0.055,-0.095
-0.045,-0.085
-0.045,-0.095
-0.045,-0.095
-0.045,-0.085
-0.045,-0.085
-0.035,-0.085
-0.015,-0.085
-0.005,-0.075
0.015,-0.065
0.015,-0.055
0.035,-0.055
0.055,-0.045
0.065,-0.035
0.045,-0.045
0.045,-0.055
0.025,-0.055
0.005,-0.055
-0.025,-0.065
-0.045,-0.085
-0.055,-0.095
-0.055,-0.095
-0.065,-0.095
-0.065,-0.105
-0.065,-0.105
-0.055,-0.095
-0.055,-0.095
-0.065,-0.095
-0.055,-0.095
-0.055,-0.095
-0.105,-0.085
-0.065,-0.095
0.195,-0.095
0.685,-0.055
1.095,0.005
0.755,-0.055
0.115,-0.235
-0.375,-0.375
-0.175,-0.385
-0.045,-0.175
-0.025,-0.055
-0.035,-0.025
-0.055,-0.035
-0.045,-0.045
-0.045,-0.045
-0.035,-0.025
-0.045,-0.025
-0.045,-0.025
-0.025,-0.025
-0.025,-0.015
-0.015,-0.015
-0.015,-0.015
-0.005,-0.015
0.005,-0.005
-0.005,-0.005
0.015,-0.005
0.025,0.005
0.035,0.005
0.045,0.015
0.065,0.025
0.075,0.035
0.095,0.045
0.095,0.055
0.115,0.055
0.135,0.065
0.155,0.095
0.175,0.095
0.175,0.095
0.175,0.105
0.195,0.105
0.185,0.095
0.175,0.085
0.165,0.065
0.145,0.065
0.115,0.025
0.065,0.005
0.035,-0.015
0.005,-0.035
-0.025,-0.055
-0.035,-0.065
-0.055,-0.075
-0.055,-0.085
-0.055,-0.085
-0.055,-0.085
-0.065,-0.095
-0.065,-0.085
-0.055,-0.085
-0.065,-0.085
-0.055,-0.095
-0.055,-0.095
-0.045,-0.085
-0.045,-0.075
-0.045,-0.085
-0.045,-0.085
-0.035,-0.075
-0.055,-0.085
-0.045,-0.085
-0.045,-0.075
-0.045,-0.075
-0.045,-0.075
-0.055,-0.085
-0.055,-0.085
-0.055,-0.085
-0.075,-0.085
-0.065,-0.095
-0.065,-0.085
-0.065,-0.085
-0.065,-0.085
-0.075,-0.095
-0.075,-0.095
-0.075,-0.085
-0.085,-0.095
-0.075,-0.095
-0.075,-0.095
-0.075,-0.095
-0.075,-0.095
-0.085,-0.105
-0.075,-0.095
-0.075,-0.095
-0.075,-0.095
-0.045,-0.105
-0.035,-0.085
-0.025,-0.065
-0.015,-0.065
-0.015,-0.065
0.025,-0.055
0.035,-0.045
0.015,-0.055
0.025,-0.065
-0.005,-0.065
-0.025,-0.065
-0.065,-0.075
-0.075,-0.085
-0.075,-0.095
-0.095,-0.115
-0.095,-0.115
-0.085,-0.115
-0.085,-0.115
-0.095,-0.115
-0.095,-0.115
-0.095,-0.115
-0.085,-0.105
-0.095,-0.115
-0.085,-0.115
-0.105,-0.115
-0.105,-0.105
0.115,-0.115
0.585,-0.075
1.065,-0.005
0.785,-0.005
0.145,-0.185
-0.385,-0.365
-0.225,-0.435
-0.055,-0.235
-0.025,-0.085
-0.055,-0.045
-0.055,-0.055
-0.055,-0.055
-0.065,-0.055
-0.055,-0.055
-0.045,-0.055
-0.045,-0.045
-0.035,-0.045
-0.035,-0.045
-0.025,-0.045
-0.005,-0.035
-0.025,-0.035
0.005,-0.025
0.015,-0.025
0.025,-0.015
0.035,-0.015
0.045,-0.015
0.055,-0.005
0.075,0.005
0.075,0.015
0.095,0.025
0.115,0.025
0.135,0.045
0.165,0.055
0.165,0.065
0.175,0.065
0.195,0.085
0.185,0.085
0.195,0.075
0.195,0.075
0.175,0.065
0.145,0.055
0.105,0.015
0.055,-0.005
0.005,-0.025
-0.025,-0.055
-0.065,-0.075
-0.075,-0.095
-0.085,-0.105
-0.095,-0.105
-0.105,-0.115
-0.105,-0.105
-0.105,-0.115
-0.105,-0.105
-0.105,-0.115
-0.095,-0.115
-0.095,-0.115
-0.095,-0.115
-0.095,-0.115
-0.095,-0.115
-0.095,-0.115
-0.095,-0.105
-0.095,-0.115
-0.085,-0.115
-0.075,-0.105
-0.085,-0.105
-0.075,-0.115
-0.085,-0.115
-0.075,-0.105
-0.085,-0.115
-0.095,-0.105
-0.095,-0.115
-0.085,-0.115
-0.095,-0.115
-0.085,-0.125
-0.095,-0.125
-0.095,-0.115
-0.095,-0.125
-0.105,-0.125
-0.095,-0.135
-0.095,-0.125
-0.095,-0.125
-0.085,-0.125
-0.085,-0.125
-0.085,-0.125
-0.075,-0.125
-0.065,-0.125
-0.055,-0.115
-0.035,-0.105
-0.035,-0.095
-0.025,-0.095
0.005,-0.095
0.015,-0.075
0.005,-0.085
0.005,-0.095
-0.015,-0.095
-0.035,-0.095
-0.075,-0.105
-0.085,-0.125
-0.095,-0.135
-0.105,-0.135
-0.105,-0.145
-0.105,-0.145
-0.105,-0.145
-0.105,-0.135
-0.095,-0.135
-0.105,-0.145
-0.095,-0.145
-0.095,-0.135
-0.095,-0.145
-0.115,-0.145
-0.115,-0.135
0.125,-0.145
0.645,-0.105
1.065,-0.025
0.605,-0.055
-0.035,-0.255
-0.415,-0.415
-0.215,-0.435
-0.055,-0.265
-0.035,-0.105
-0.055,-0.085
-0.065,-0.085
-0.065,-0.095
-0.055,-0.085
-0.065,-0.085
-0.065,-0.085
-0.045,-0.085
-0.045,-0.085
-0.045,-0.075
-0.025,-0.075
-0.025,-0.075
-0.015,-0.065
-0.005,-0.065
-0.005,-0.055
0.005,-0.065
0.025,-0.055
0.025,-0.045
0.045,-0.045
0.055,-0.045
0.075,-0.025
0.085,-0.015
0.105,-0.005
0.115,-0.005
0.145,0.005
0.155,0.025
0.175,0.025
0.185,0.025
0.195,0.025
0.205,0.045
0.195,0.035
0.185,0.025
0.145,0.015
0.105,-0.015
0.065,-0.035
0.025,-0.065
-0.015,-0.085
-0.045,-0.105
-0.075,-0.115
-0.075,-0.135
-0.085,-0.135
-0.095,-0.135
-0.095,-0.135
-0.095,-0.145
-0.095,-0.135
-0.095,-0.145
-0.095,-0.135
-0.085,-0.145
-0.085,-0.135
-0.065,-0.135
-0.085,-0.135
-0.075,-0.135
-0.065,-0.125
-0.075,-0.125
-0.065,-0.135
-0.065,-0.135
-0.065,-0.125
-0.065,-0.125
-0.065,-0.135
-0.075,-0.135
-0.065,-0.125
-0.075,-0.125
-0.075,-0.135
-0.075,-0.135
-0.075,-0.135
-0.075,-0.135
-0.075,-0.135
-0.085,-0.135
-0.075,-0.135
-0.095,-0.135
-0.085,-0.135
-0.075,-0.135
-0.075,-0.135
-0.055,-0.135
-0.055,-0.135
-0.035,-0.125
-0.025,-0.115
-0.035,-0.115
-0.025,-0.105
0.025,-0.105
0.025,-0.085
0.035,-0.095
0.025,-0.095
0.005,-0.105
-0.015,-0.095
-0.055,-0.115
-0.075,-0.125
-0.075,-0.135
-0.085,-0.135
-0.075,-0.145
-0.085,-0.145
-0.095,-0.145
-0.095,-0.145
-0.105,-0.145
-0.085,-0.145
-0.085,-0.145
-0.085,-0.145
-0.075,-0.145
-0.085,-0.145
-0.135,-0.135
0.035,-0.135
0.375,-0.125
0.885,-0.085
0.965,-0.015
0.325,-0.135
-0.275,-0.315
-0.385,-0.425
-0.145,-0.415
-0.025,-0.195
-0.035,-0.095
-0.055,-0.085
-0.055,-0.085
-0.045,-0.085
-0.045,-0.085
-0.045,-0.085
-0.035,-0.085
-0.025,-0.075
-0.025,-0.075
-0.025,-0.075
-0.015,-0.075
-0.005,-0.065
0.005,-0.065
0.015,-0.065
0.025,-0.055
0.025,-0.055
0.025,-0.045
0.045,-0.045
0.055,-0.035
0.075,-0.025
0.095,-0.015
0.105,-0.015
0.125,-0.015
0.145,0.005
0.155,0.005
0.165,0.025
0.185,0.025
0.195,0.025
0.195,0.025
0.205,0.035
0.185,0.025
0.155,0.015
0.125,-0.005
0.075,-0.025
0.035,-0.055
0.005,-0.075
-0.035,-0.085
-0.055,-0.105
-0.075,-0.115
-0.085,-0.125
-0.095,-0.125
-0.095,-0.125
-0.095,-0.135
-0.095,-0.125
-0.085,-0.125
-0.085,-0.125
-0.085,-0.135
-0.085,-0.125
-0.085,-0.115
-0.085,-0.125
-0.075,-0.125
-0.075,-0.125
-0.075,-0.115
-0.075,-0.125
-0.065,-0.125
-0.065,-0.115
-0.075,-0.115
-0.075,-0.125
-0.075,-0.125
-0.075,-0.115
-0.075,-0.115
-0.075,-0.125
-0.075,-0.135
-0.085,-0.115
-0.085,-0.125
-0.085,-0.125
-0.085,-0.125
-0.085,-0.125
-0.085,-0.125
-0.085,-0.125
-0.085,-0.125
-0.075,-0.125
-0.065,-0.125
-0.065,-0.115
-0.045,-0.115
-0.035,-0.105
-0.025,-0.095
-0.005,-0.095
0.005,-0.085
0.005,-0.085
-0.005,-0.085
-0.015,-0.105
-0.035,-0.105
-0.075,-0.105
-0.085,-0.115
-0.095,-0.125
-0.105,-0.135
-0.105,-0.135
-0.115,-0.135
-0.115,-0.145
-0.115,-0.135
-0.105,-0.135
-0.105,-0.135
-0.105,-0.135
-0.105,-0.135
-0.095,-0.135
-0.135,-0.135
-0.155,-0.135
0.025,-0.135
0.455,-0.115
0.935,-0.065
0.945,-0.025
0.305,-0.155
-0.335,-0.345
-0.375,-0.435
-0.135,-0.365
-0.055,-0.155
-0.065,-0.065
-0.075,-0.075
-0.085,-0.085
-0.075,-0.085
-0.065,-0.075
-0.075,-0.085
-0.065,-0.075
-0.055,-0.075
-0.045,-0.065
-0.045,-0.065
-0.035,-0.065
-0.045,-0.055
-0.025,-0.055
-0.025,-0.055
-0.015,-0.045
0.005,-0.045
0.015,-0.035
0.025,-0.035
0.045,-0.025
0.055,-0.025
0.065,-0.015
0.085,0.005
0.095,0.005
0.125,0.005
0.135,0.025
0.155,0.045
0.165,0.055
0.175,0.045
0.185,0.055
0.185,0.065
0.165,0.055
0.145,0.025
0.095,0.005
0.045,-0.015
0.005,-0.045
-0.035,-0.065
-0.065,-0.085
-0.095,-0.105
-0.125,-0.115
-0.125,-0.115
-0.125,-0.125
-0.135,-0.125
-0.125,-0.125
-0.135,-0.135
-0.135,-0.125
-0.125,-0.125
-0.135,-0.125
-0.135,-0.135
-0.115,-0.125
-0.125,-0.125
-0.115,-0.125
-0.115,-0.135
-0.105,-0.125
-0.115,-0.115
-0.115,-0.125
-0.105,-0.125
-0.095,-0.115
-0.095,-0.115
-0.105,-0.115
-0.105,-0.125
-0.105,-0.115
-0.115,-0.115
-0.115,-0.125
-0.115,-0.125
-0.115,-0.115
-0.115,-0.125
-0.115,-0.125
-0.125,-0.125
-0.115,-0.125
-0.135,-0.125
-0.125,-0.125
-0.105,-0.125
-0.085,-0.115
-0.075,-0.115
-0.075,-0.115
-0.075,-0.105
-0.045,-0.085
-0.035,-0.085
-0.015,-0.085
-0.025,-0.085
-0.025,-0.095
-0.055,-0.085
-0.075,-0.095
-0.115,-0.105
-0.115,-0.115
-0.135,-0.135
-0.135,-0.135
-0.135,-0.135
-0.135,-0.135
-0.135,-0.135
-0.135,-0.145
-0.135,-0.145
-0.135,-0.125
-0.135,-0.135
-0.135,-0.135
-0.125,-0.135
-0.125,-0.135
-0.175,-0.125
-0.025,-0.135
0.345,-0.115
0.875,-0.065
1.035,-0.025
0.395,-0.135
-0.245,-0.335
-0.375,-0.445
-0.165,-0.355
-0.075,-0.145
-0.085,-0.075
-0.095,-0.065
-0.105,-0.065
-0.105,-0.075
-0.095,-0.075
-0.095,-0.065
-0.095,-0.065
-0.085,-0.055
-0.075,-0.065
-0.065,-0.055
-0.065,-0.055
-0.065,-0.055
-0.055,-0.045
-0.035,-0.045
-0.035,-0.035
-0.015,-0.025
-0.005,-0.025
0.005,-0.015
0.015,-0.005
0.025,-0.005
0.045,-0.005
0.075,0.015
0.085,0.025
0.115,0.035
0.135,0.045
0.155,0.055
0.175,0.065
0.175,0.075
0.195,0.065
0.195,0.065
0.175,0.065
0.145,0.055
0.095,0.005
0.045,-0.015
-0.005,-0.035
-0.065,-0.065
-0.085,-0.085
-0.105,-0.105
-0.125,-0.115
-0.125,-0.115
-0.145,-0.125
-0.135,-0.115
-0.145,-0.125
-0.145,-0.125
-0.135,-0.135
-0.135,-0.135
-0.135,-0.125
-0.135,-0.135
-0.135,-0.125
-0.125,-0.125
-0.135,-0.125
-0.135,-0.125
-0.115,-0.125
-0.115,-0.115
-0.115,-0.115
-0.115,-0.115
-0.115,-0.125
-0.115,-0.115
-0.125,-0.115
-0.115,-0.115
-0.115,-0.115
-0.115,-0.115
-0.115,-0.115
-0.115,-0.125
-0.125,-0.125
-0.125,-0.125
-0.135,-0.125
-0.135,-0.125
-0.135,-0.135
-0.125,-0.125
-0.105,-0.125
-0.105,-0.125
-0.095,-0.115
-0.075,-0.105
-0.095,-0.105
-0.075,-0.105
-0.035,-0.095
-0.025,-0.085
-0.025,-0.095
-0.025,-0.095
-0.035,-0.105
-0.065,-0.095
-0.105,-0.115
-0.125,-0.125
-0.115,-0.135
-0.135,-0.145
-0.135,-0.145
-0.135,-0.155
-0.145,-0.155
-0.135,-0.145
-0.155,-0.145
-0.145,-0.155
-0.145,-0.145
-0.135,-0.145
-0.135,-0.145
-0.135,-0.145
-0.155,-0.145
-0.145,-0.135
0.075,-0.145
0.565,-0.115
1.035,-0.045
0.715,-0.055
0.075,-0.235
-0.435,-0.415
-0.245,-0.465
-0.095,-0.255
-0.095,-0.105
-0.105,-0.085
-0.115,-0.095
-0.095,-0.085
-0.095,-0.095
-0.095,-0.095
-0.085,-0.095
-0.085,-0.085
-0.085,-0.085
-0.075,-0.075
-0.065,-0.085
-0.065,-0.075
-0.045,-0.065
-0.045,-0.065
-0.045,-0.075
-0.025,-0.065
-0.015,-0.055
-0.005,-0.045
0.005,-0.055
0.025,-0.035
0.045,-0.025
0.055,-0.025
0.065,-0.015
0.095,0.005
0.105,0.005
0.125,0.015
0.145,0.005
0.175,0.025
0.185,0.035
0.175,0.035
0.175,0.025
0.145,0.015
0.095,-0.005
0.045,-0.035
0.005,-0.065
-0.035,-0.085
-0.065,-0.105
-0.095,-0.115
-0.125,-0.135
-0.135,-0.135
-0.145,-0.145
-0.145,-0.145
-0.145,-0.155
-0.135,-0.145
-0.125,-0.145
-0.135,-0.155
-0.145,-0.155
-0.135,-0.145
-0.145,-0.155
-0.135,-0.155
-0.135,-0.155
-0.125,-0.145
-0.125,-0.145
-0.125,-0.145
-0.135,-0.145
-0.115,-0.145
-0.145,-0.145
-0.115,-0.145
-0.115,-0.145
-0.115,-0.135
-0.115,-0.145
-0.115,-0.155
-0.135,-0.155
-0.125,-0.145
-0.145,-0.155
-0.135,-0.155
-0.125,-0.155
-0.135,-0.155
-0.125,-0.155
-0.125,-0.155
-0.125,-0.165
-0.105,-0.145
-0.115,-0.145
-0.095,-0.145
-0.085,-0.135
-0.075,-0.125
-0.045,-0.125
-0.035,-0.115
-0.035,-0.115
-0.035,-0.115
-0.055,-0.125
-0.085,-0.125
-0.095,-0.135
-0.135,-0.145
-0.135,-0.155
-0.145,-0.175
-0.155,-0.175
-0.155,-0.175
-0.165,-0.175
-0.155,-0.175
-0.155,-0.185
-0.155,-0.175
-0.155,-0.175
-0.155,-0.175
-0.145,-0.175
-0.145,-0.175
-0.165,-0.165
-0.195,-0.165
-0.005,-0.175
0.435,-0.155
0.905,-0.085
0.835,-0.055
0.195,-0.205
-0.425,-0.385
-0.375,-0.485
-0.155,-0.375
-0.095,-0.185
-0.105,-0.105
-0.115,-0.105
-0.115,-0.115
-0.115,-0.125
-0.115,-0.125
-0.105,-0.115
-0.105,-0.115
-0.095,-0.115
-0.095,-0.105
-0.085,-0.105
-0.075,-0.105
-0.075,-0.105
-0.065,-0.095
-0.055,-0.095
-0.055,-0.095
-0.035,-0.085
-0.035,-0.085
-0.025,-0.075
-0.005,-0.075
0.005,-0.065
0.025,-0.055
0.055,-0.045
0.055,-0.035
0.085,-0.035
0.095,-0.025
0.115,-0.005
0.125,-0.005
0.135,-0.005
0.145,0.005
0.145,0.005
0.115,-0.015
0.085,-0.035
0.035,-0.045
-0.015,-0.065
-0.055,-0.095
-0.105,-0.115
-0.125,-0.125
-0.145,-0.135
-0.165,-0.155
-0.145,-0.155
-0.155,-0.165
-0.165,-0.155
-0.165,-0.155
-0.155,-0.165
-0.165,-0.155
-0.155,-0.155
-0.165,-0.155
-0.155,-0.165
-0.155,-0.155
-0.145,-0.155
-0.135,-0.145
-0.145,-0.165
-0.145,-0.155
-0.145,-0.145
-0.145,-0.155
-0.145,-0.155
-0.145,-0.145
-0.135,-0.145
-0.135,-0.145
-0.145,-0.155
-0.145,-0.145
-0.145,-0.145
-0.155,-0.145
-0.155,-0.155
-0.155,-0.155
-0.155,-0.155
-0.155,-0.155
-0.155,-0.155
-0.155,-0.155
-0.155,-0.155
-0.135,-0.145
-0.125,-0.145
-0.105,-0.135
-0.095,-0.135
-0.085,-0.125
-0.065,-0.115
-0.055,-0.105
-0.075,-0.115
-0.065,-0.125
-0.095,-0.125
-0.115,-0.125
-0.145,-0.135
-0.155,-0.155
-0.165,-0.165
-0.165,-0.155
-0.185,-0.165
-0.175,-0.165
-0.185,-0.165
-0.165,-0.155
-0.165,-0.155
-0.175,-0.165
-0.175,-0.165
-0.165,-0.155
-0.165,-0.155
-0.165,-0.165
-0.205,-0.155
-0.055,-0.155
0.315,-0.145
0.795,-0.095
0.945,-0.045
0.305,-0.155
-0.335,-0.355
-0.445,-0.465
-0.195,-0.395
-0.095,-0.185
-0.105,-0.095
-0.125,-0.095
-0.125,-0.095
-0.125,-0.095
-0.125,-0.095
-0.115,-0.095
-0.115,-0.095
-0.105,-0.085
-0.095,-0.085
-0.095,-0.085
-0.085,-0.085
-0.085,-0.085
-0.065,-0.065
-0.065,-0.065
-0.055,-0.065
-0.035,-0.065
-0.035,-0.055
-0.015,-0.045
-0.005,-0.045
0.015,-0.035
0.035,-0.025
0.045,-0.015
0.075,-0.005
0.095,0.015
0.115,0.025
0.135,0.025
0.145,0.035
0.165,0.045
0.165,0.035
0.155,0.035
0.135,0.025
0.095,0.015
0.045,-0.015
-0.005,-0.045
-0.055,-0.065
-0.085,-0.085
-0.125,-0.105
-0.145,-0.115
-0.145,-0.125
-0.155,-0.125
-0.155,-0.125
-0.155,-0.135
-0.165,-0.135
-0.145,-0.125
-0.165,-0.125
-0.155,-0.125
-0.155,-0.125
-0.135,-0.125
-0.135,-0.125
-0.145,-0.125
-0.145,-0.125
-0.135,-0.125
-0.145,-0.125
-0.135,-0.125
-0.135,-0.125
-0.125,-0.115
-0.115,-0.125
-0.125,-0.125
-0.125,-0.125
-0.125,-0.115
-0.135,-0.125
-0.135,-0.125
-0.135,-0.125
-0.135,-0.115
-0.135,-0.125
-0.135,-0.125
-0.135,-0.135
-0.135,-0.125
-0.145,-0.125
-0.135,-0.125
-0.125,-0.125
-0.105,-0.115
-0.105,-0.105
-0.085,-0.105
-0.085,-0.105
-0.075,-0.085
-0.045,-0.085
-0.045,-0.075
-0.045,-0.075
-0.035,-0.085
-0.045,-0.095
-0.085,-0.095
-0.115,-0.105
-0.135,-0.105
-0.145,-0.125
-0.155,-0.135
-0.145,-0.135
-0.145,-0.125
-0.145,-0.125
-0.145,-0.135
-0.155,-0.135
-0.145,-0.125
-0.155,-0.125
-0.155,-0.135
-0.135,-0.135
-0.135,-0.125
-0.185,-0.125
-0.095,-0.125
0.215,-0.125
0.765,-0.075
1.105,-0.025
0.495,-0.095
-0.145,-0.285
-0.435,-0.425
-0.195,-0.375
-0.085,-0.165
-0.095,-0.065
-0.105,-0.055
-0.115,-0.055
-0.115,-0.065
-0.105,-0.065
-0.095,-0.055
-0.095,-0.055
-0.095,-0.055
-0.085,-0.055
-0.075,-0.045
-0.075,-0.045
-0.065,-0.045
-0.055,-0.045
-0.035,-0.035
-0.035,-0.025
-0.025,-0.015
-0.015,-0.025
0.005,-0.005
0.015,-0.005
0.035,0.015
0.055,0.005
0.075,0.025
0.095,0.045
0.125,0.055
0.135,0.045
0.165,0.075
0.165,0.085
0.195,0.085
0.205,0.085
0.205,0.085
0.175,0.075
0.125,0.055
0.075,0.025
0.025,0.005
-0.025,-0.035
-0.065,-0.045
-0.095,-0.075
-0.105,-0.085
-0.125,-0.095
-0.135,-0.105
-0.145,-0.115
-0.145,-0.105
-0.145,-0.115
-0.145,-0.115
-0.135,-0.115
-0.135,-0.115
-0.135,-0.115
-0.135,-0.115
-0.135,-0.115
-0.135,-0.105
-0.145,-0.105
-0.135,-0.105
-0.115,-0.105
-0.115,-0.095
-0.115,-0.105
-0.115,-0.105
-0.115,-0.105
-0.105,-0.095
-0.115,-0.095
-0.125,-0.105
-0.115,-0.105
-0.115,-0.095
-0.115,-0.105
-0.115,-0.105
-0.125,-0.115
-0.125,-0.105
-0.135,-0.105
-0.125,-0.105
-0.125,-0.115
-0.125,-0.105
-0.105,-0.105
-0.105,-0.105
-0.095,-0.105
-0.075,-0.085
-0.075,-0.095
-0.075,-0.085
-0.035,-0.075
-0.025,-0.065
-0.025,-0.065
-0.025,-0.075
-0.035,-0.085
-0.065,-0.075
-0.115,-0.095
-0.125,-0.105
-0.125,-0.115
-0.135,-0.125
-0.135,-0.125
-0.135,-0.125
-0.145,-0.125
-0.135,-0.115
-0.145,-0.125
-0.145,-0.125
-0.135,-0.125
-0.135,-0.125
-0.125,-0.125
-0.125,-0.125
-0.155,-0.125
-0.145,-0.115
0.085,-0.135
0.595,-0.085
1.085,-0.025
0.815,-0.045
0.175,-0.195
-0.445,-0.385
-0.265,-0.425
-0.095,-0.235
-0.085,-0.075
-0.095,-0.055
-0.105,-0.065
-0.095,-0.065
-0.095,-0.065
-0.095,-0.065
-0.085,-0.055
-0.075,-0.055
-0.085,-0.055
-0.075,-0.055
-0.065,-0.055
-0.055,-0.035
-0.035,-0.045
-0.035,-0.045
-0.025,-0.035
-0.005,-0.025
-0.015,-0.015
0.005,-0.015
0.025,-0.005
0.045,0.005
0.065,0.005
0.075,0.025
0.095,0.035
0.125,0.045
0.125,0.055
0.155,0.055
0.165,0.065
0.195,0.075
0.205,0.085
0.215,0.075
0.195,0.075
0.165,0.055
0.105,0.035
0.045,0.005
0.005,-0.025
-0.045,-0.045
-0.075,-0.075
-0.095,-0.095
-0.115,-0.105
-0.125,-0.105
-0.135,-0.105
-0.135,-0.115
-0.125,-0.115
-0.125,-0.115
-0.125,-0.115
-0.125,-0.125
-0.125,-0.115
-0.125,-0.115
-0.135,-0.115
-0.115,-0.115
-0.115,-0.115
-0.105,-0.105
-0.105,-0.105
-0.115,-0.105
-0.105,-0.115
-0.095,-0.105
-0.105,-0.105
-0.105,-0.105
-0.105,-0.115
-0.105,-0.105
-0.105,-0.115
-0.105,-0.115
-0.105,-0.115
-0.105,-0.115
-0.115,-0.115
-0.125,-0.115
-0.105,-0.125
-0.105,-0.115
-0.115,-0.115
-0.115,-0.115
-0.115,-0.115
-0.105,-0.115
-0.095,-0.105
-0.085,-0.105
-0.075,-0.105
-0.065,-0.095
-0.055,-0.095
-0.025,-0.085
-0.015,-0.085
-0.015,-0.075
-0.015,-0.075
-0.025,-0.085
-0.055,-0.085
-0.075,-0.095
-0.105,-0.095
-0.095,-0.115
-0.115,-0.135
-0.125,-0.125
-0.115,-0.135
-0.135,-0.135
-0.125,-0.145
-0.125,-0.135
-0.115,-0.125
-0.115,-0.135
-0.115,-0.135
-0.115,-0.135
-0.115,-0.125
-0.135,-0.135
-0.155,-0.135
0.015,-0.135
0.415,-0.105
0.945,-0.055
0.945,-0.015
0.305,-0.155
-0.335,-0.355
-0.335,-0.455
-0.105,-0.325
-0.055,-0.125
-0.075,-0.065
-0.075,-0.075
-0.085,-0.085
-0.075,-0.075
-0.075,-0.075
-0.075,-0.075
-0.065,-0.075
-0.055,-0.065
-0.055,-0.065
-0.035,-0.065
-0.035,-0.065
-0.025,-0.055
-0.025,-0.055
-0.015,-0.055
-0.015,-0.055
0.005,-0.045
0.025,-0.035
0.025,-0.035
0.045,-0.035
0.075,-0.015
0.075,-0.005
0.095,-0.005
0.115,0.005
0.145,0.015
0.165,0.025
0.185,0.035
0.195,0.035
0.205,0.045
0.195,0.045
0.185,0.025
0.155,0.015
0.105,-0.005
0.055,-0.025
-0.005,-0.055
-0.035,-0.075
-0.065,-0.095
-0.095,-0.105
-0.105,-0.115
-0.105,-0.125
-0.105,-0.125
-0.105,-0.125
-0.115,-0.135
-0.105,-0.125
-0.105,-0.125
-0.115,-0.125
-0.115,-0.135
-0.095,-0.135
-0.095,-0.115
-0.095,-0.125
-0.095,-0.125
-0.095,-0.125
-0.085,-0.125
-0.095,-0.125
-0.085,-0.115
-0.085,-0.125
-0.085,-0.115
-0.075,-0.125
-0.095,-0.125
-0.085,-0.125
-0.085,-0.115
-0.095,-0.125
-0.085,-0.125
-0.095,-0.125
-0.095,-0.125
-0.095,-0.125
-0.095,-0.125
-0.105,-0.135
-0.095,-0.125
-0.105,-0.125
-0.095,-0.135
-0.075,-0.135
-0.065,-0.115
-0.055,-0.115
-0.035,-0.105
-0.035,-0.105
-0.015,-0.095
0.005,-0.085
0.005,-0.085
0.005,-0.095
0.015,-0.095
-0.005,-0.095
-0.035,-0.095
-0.075,-0.115
-0.085,-0.115
-0.095,-0.125
-0.105,-0.135
-0.105,-0.145
-0.095,-0.145
-0.095,-0.135
-0.105,-0.135
-0.105,-0.145
-0.095,-0.135
-0.095,-0.135
-0.105,-0.135
-0.095,-0.145
-0.085,-0.135
-0.135,-0.125
-0.005,-0.135
0.365,-0.125
0.875,-0.075
1.005,-0.015
0.365,-0.145
-0.275,-0.345
-0.395,-0.435
-0.125,-0.385
-0.025,-0.165
-0.035,-0.085
-0.045,-0.065
-0.065,-0.075
-0.055,-0.085
-0.055,-0.075
-0.035,-0.075
-0.045,-0.065
-0.035,-0.075
-0.025,-0.075
-0.015,-0.065
-0.025,-0.065
-0.015,-0.055
0.005,-0.055
0.015,-0.055
0.025,-0.045
0.025,-0.045
0.045,-0.045
0.055,-0.035
0.065,-0.025
0.075,-0.025
0.105,-0.025
0.135,-0.005
0.155,0.005
0.175,0.005
0.185,0.025
0.205,0.045
0.205,0.035
0.225,0.025
0.235,0.025
0.225,0.045
0.195,0.025
0.145,0.005
0.095,-0.025
0.055,-0.035
-0.005,-0.065
-0.035,-0.085
-0.055,-0.095
-0.065,-0.105
-0.075,-0.115
-0.085,-0.115
-0.095,-0.125
-0.085,-0.115
-0.095,-0.115
-0.095,-0.115
-0.085,-0.115
-0.085,-0.115
-0.075,-0.115
-0.085,-0.115
-0.075,-0.115
-0.065,-0.105
-0.075,-0.105
-0.075,-0.115
-0.065,-0.105
-0.055,-0.105
-0.055,-0.105
-0.055,-0.105
-0.065,-0.105
-0.055,-0.095
-0.075,-0.105
-0.075,-0.105
-0.075,-0.105
-0.065,-0.105
-0.065,-0.105
-0.065,-0.105
-0.075,-0.105
-0.065,-0.105
-0.085,-0.105
-0.085,-0.115
-0.075,-0.115
-0.075,-0.105
-0.075,-0.115
-0.055,-0.115
-0.045,-0.105
-0.035,-0.095
-0.025,-0.095
-0.025,-0.075
-0.015,-0.085
0.015,-0.075
0.025,-0.055
0.025,-0.065
0.025,-0.075
0.015,-0.075
-0.025,-0.075
-0.055,-0.095
-0.075,-0.105
-0.085,-0.115
-0.085,-0.115
-0.085,-0.125
-0.095,-0.125
-0.095,-0.125
-0.095,-0.125
-0.105,-0.125
-0.095,-0.125
-0.095,-0.125
-0.095,-0.115
-0.075,-0.125
-0.075,-0.125
-0.105,-0.125
-0.095,-0.115
0.125,-0.125
0.605,-0.085
1.075,-0.025
0.775,-0.065
0.135,-0.245
-0.425,-0.405
-0.205,-0.415
-0.045,-0.195
-0.045,-0.065
-0.055,-0.055
-0.055,-0.065
-0.055,-0.055
-0.045,-0.065
-0.045,-0.065
-0.045,-0.055
-0.045,-0.055
-0.045,-0.055
-0.035,-0.055
-0.025,-0.045
-0.015,-0.035
-0.005,-0.045
-0.005,-0.045
0.015,-0.035
0.025,-0.025
0.025,-0.015
0.045,-0.015
0.065,-0.005
0.075,0.005
0.085,0.005
0.115,0.005
0.135,0.035
0.155,0.045
0.175,0.055
0.195,0.045
0.215,0.065
0.235,0.075
0.245,0.065
0.235,0.065
0.205,0.065
0.155,0.045
0.105,0.015
0.045,-0.015
0.005,-0.045
-0.035,-0.065
-0.065,-0.085
-0.095,-0.095
-0.095,-0.105
-0.115,-0.115
-0.115,-0.115
-0.115,-0.125
-0.115,-0.105
-0.115,-0.115
-0.115,-0.125
-0.115,-0.115
-0.115,-0.115
-0.125,-0.115
-0.115,-0.115
-0.105,-0.115
-0.105,-0.115
-0.105,-0.105
-0.105,-0.115
-0.105,-0.115
-0.095,-0.105
-0.105,-0.105
-0.105,-0.105
-0.095,-0.115
-0.095,-0.105
-0.105,-0.105
-0.105,-0.115
-0.105,-0.115
-0.105,-0.105
-0.115,-0.115
-0.115,-0.115
-0.115,-0.115
-0.115,-0.115
-0.115,-0.115
-0.115,-0.125
-0.125,-0.125
-0.115,-0.115
-0.125,-0.115
-0.125,-0.125
-0.105,-0.125
-0.085,-0.105
-0.085,-0.095
-0.065,-0.095
-0.065,-0.095
-0.045,-0.075
-0.025,-0.075
-0.025,-0.075
-0.025,-0.085
-0.025,-0.085
-0.045,-0.085
-0.065,-0.095
-0.115,-0.105
-0.125,-0.115
-0.125,-0.125
-0.135,-0.125
-0.135,-0.135
-0.135,-0.135
-0.135,-0.135
-0.135,-0.135
-0.145,-0.135
-0.135,-0.125
-0.135,-0.135
-0.145,-0.125
-0.125,-0.135
-0.125,-0.125
-0.175,-0.125
-0.055,-0.135
0.295,-0.115
0.815,-0.065
1.095,-0.025
0.455,-0.115
-0.185,-0.325
-0.405,-0.435
-0.165,-0.345
-0.075,-0.135
-0.095,-0.065
-0.105,-0.055
-0.115,-0.065
-0.115,-0.065
-0.105,-0.065
-0.095,-0.065
-0.095,-0.055
-0.085,-0.055
-0.085,-0.055
-0.075,-0.045
-0.075,-0.045
-0.065,-0.045
-0.055,-0.045
-0.035,-0.035
-0.025,-0.025
-0.015,-0.025
-0.005,-0.015
0.015,-0.015
0.015,-0.005
0.035,0.005
0.055,0.005
0.085,0.025
0.115,0.035
0.125,0.055
0.155,0.065
0.175,0.075
0.175,0.075
0.195,0.075
0.195,0.065
0.195,0.075
0.165,0.065
0.095,0.035
0.045,-0.005
-0.005,-0.025
-0.065,-0.045
-0.085,-0.075
-0.105,-0.095
-0.115,-0.095
-0.125,-0.105
-0.135,-0.115
-0.145,-0.125
-0.145,-0.115
-0.155,-0.115
-0.145,-0.115
-0.145,-0.125
-0.135,-0.115
-0.135,-0.115
-0.145,-0.115
-0.135,-0.115
-0.135,-0.115
-0.135,-0.105
-0.135,-0.105
-0.125,-0.115
-0.125,-0.105
-0.125,-0.105
-0.115,-0.105
-0.125,-0.115
-0.115,-0.105
-0.115,-0.105
-0.125,-0.115
-0.125,-0.115
-0.125,-0.105
-0.125,-0.105
-0.115,-0.105
-0.125,-0.115
-0.125,-0.115
-0.125,-0.115
-0.135,-0.115
-0.135,-0.115
-0.125,-0.115
-0.125,-0.115
-0.115,-0.115
-0.135,-0.125
-0.125,-0.115
-0.115,-0.115
-0.115,-0.115
-0.085,-0.115
-0.085,-0.095
-0.065,-0.085
-0.065,-0.085
-0.045,-0.085
-0.025,-0.075
-0.015,-0.075
-0.035,-0.075
-0.025,-0.095
-0.055,-0.085
-0.085,-0.095
-0.105,-0.105
-0.125,-0.125
-0.135,-0.125
-0.135,-0.125
-0.145,-0.125
-0.135,-0.135
-0.145,-0.135
-0.145,-0.125
-0.135,-0.135
-0.145,-0.135
-0.135,-0.125
-0.135,-0.125
-0.135,-0.125
-0.165,-0.125
-0.135,-0.115
0.135,-0.125
0.645,-0.085
1.095,-0.025
0.645,-0.065
0.005,-0.255
-0.455,-0.405
-0.215,-0.405
-0.095,-0.195
-0.095,-0.075
-0.105,-0.065
-0.115,-0.075
-0.115,-0.065
-0.125,-0.065
-0.105,-0.075
-0.105,-0.075
-0.085,-0.065
-0.085,-0.065
-0.085,-0.065
-0.075,-0.055
-0.065,-0.055
-0.075,-0.045
-0.045,-0.055
-0.035,-0.045
-0.025,-0.035
-0.015,-0.035
-0.005,-0.025
0.005,-0.015
0.025,-0.005
0.035,-0.005
0.065,0.005
0.085,0.015
0.115,0.035
0.125,0.045
0.145,0.045
0.155,0.055
0.175,0.065
0.165,0.065
0.175,0.055
0.155,0.045
0.115,0.035
0.075,0.005
0.015,-0.035
-0.035,-0.055
-0.065,-0.075
-0.105,-0.095
-0.125,-0.115
-0.135,-0.125
-0.135,-0.135
-0.145,-0.135
-0.145,-0.145
-0.155,-0.135
-0.145,-0.135
-0.155,-0.135
-0.145,-0.145
-0.145,-0.135
-0.145,-0.135
-0.145,-0.135
-0.145,-0.145
-0.145,-0.135
-0.145,-0.135
-0.145,-0.135
-0.135,-0.135
-0.135,-0.135
-0.135,-0.135
-0.135,-0.125
-0.135,-0.135
-0.135,-0.135
-0.135,-0.135
-0.135,-0.125
-0.135,-0.135
-0.135,-0.145
-0.125,-0.125
-0.135,-0.135
-0.105,-0.125
-0.085,-0.135
-0.035,-0.115
0.005,-0.075
0.175,-0.045
0.415,0.005
0.645,0.105
0.855,0.145
0.975,0.115
1.085,0.035
1.205,0.045
1.345,0.045
1.285,0.025
1.105,-0.115
0.925,-0.235
0.845,-0.325
0.405,-0.245
-0.135,-0.135
-0.295,-0.115
-0.305,-0.115
-0.335,-0.135
-0.365,-0.135
-0.405,-0.145
-0.435,-0.145
-0.445,-0.165
-0.465,-0.175
-0.475,-0.165
-0.485,-0.165
-0.515,-0.165
-0.515,-0.165
-0.525,-0.155
-0.545,-0.155
-0.555,-0.155
-0.585,-0.155
-0.615,-0.155
-0.645,-0.155
-0.675,-0.155
-0.705,-0.165
-0.735,-0.165
-0.755,-0.165
-0.765,-0.165
-0.765,-0.165
-0.735,-0.155
-0.695,-0.135
-0.655,-0.125
-0.575,-0.125
-0.505,-0.105
-0.415,-0.095
-0.345,-0.085
-0.285,-0.095
-0.235,-0.095
-0.195,-0.105
-0.185,-0.125
-0.165,-0.145
-0.165,-0.145
-0.155,-0.155
-0.155,-0.155
-0.155,-0.165
-0.145,-0.165
-0.155,-0.165
-0.145,-0.165
-0.145,-0.165
-0.145,-0.155
-0.135,-0.165
-0.135,-0.165
-0.135,-0.165
-0.125,-0.155
-0.135,-0.165
-0.135,-0.155
-0.125,-0.165
-0.125,-0.155
-0.125,-0.165
-0.115,-0.165
-0.115,-0.165
-0.125,-0.155
-0.125,-0.155
-0.135,-0.165
-0.115,-0.165
-0.125,-0.155
-0.125,-0.165
-0.125,-0.165
-0.135,-0.165
-0.125,-0.165
-0.135,-0.165
-0.135,-0.165
-0.125,-0.165
-0.125,-0.155
-0.125,-0.165
-0.125,-0.175
-0.135,-0.165
-0.125,-0.155
-0.135,-0.165
-0.135,-0.165
-0.125,-0.165
-0.125,-0.165
-0.125,-0.165
-0.125,-0.165
-0.125,-0.165
-0.115,-0.165
-0.135,-0.155
-0.135,-0.155
-0.125,-0.165
-0.115,-0.165
-0.125,-0.155
-0.115,-0.165
-0.125,-0.165
-0.135,-0.165
-0.125,-0.145
-0.125,-0.155
-0.125,-0.165
-0.125,-0.155
-0.125,-0.155
-0.125,-0.155
-0.125,-0.165
-0.115,-0.145
-0.125,-0.155
-0.125,-0.155
-0.125,-0.165
-0.115,-0.155
-0.105,-0.155
-0.115,-0.155
-0.115,-0.155
-0.095,-0.145
-0.105,-0.145
-0.085,-0.145
-0.065,-0.135
-0.055,-0.125
-0.055,-0.115
-0.015,-0.115
-0.005,-0.105
-0.005,-0.105
-0.015,-0.105
-0.025,-0.115
-0.055,-0.125
-0.095,-0.115
-0.105,-0.135
-0.125,-0.145
-0.135,-0.155
-0.125,-0.145
-0.145,-0.155
-0.135,-0.165
-0.135,-0.155
-0.125,-0.145
-0.135,-0.155
-0.145,-0.155
-0.135,-0.155
-0.115,-0.155
-0.165,-0.155
-0.135,-0.155
0.125,-0.155
0.605,-0.115
0.965,-0.035
0.575,-0.095
-0.065,-0.295
-0.465,-0.415
-0.255,-0.455
-0.105,-0.265
-0.085,-0.115
-0.105,-0.095
-0.115,-0.095
-0.105,-0.105
-0.115,-0.095
-0.105,-0.095
-0.095,-0.095
-0.115,-0.095
-0.095,-0.095
-0.085,-0.085
-0.085,-0.085
-0.075,-0.085
-0.075,-0.085
-0.065,-0.075
-0.055,-0.075
-0.055,-0.065
-0.045,-0.075
-0.035,-0.055
-0.015,-0.055
0.005,-0.045
0.005,-0.045
0.015,-0.035
0.045,-0.025
0.045,-0.015
0.065,-0.005
0.085,0.005
0.095,0.015
0.115,0.025
0.115,0.015
0.125,0.025
0.115,0.025
0.105,0.005
0.085,-0.005
0.055,-0.015
0.025,-0.035
-0.015,-0.065
-0.045,-0.085
-0.075,-0.105
-0.095,-0.115
-0.135,-0.125
-0.125,-0.135
-0.125,-0.125
-0.125,-0.125
-0.125,-0.135
-0.125,-0.135
-0.115,-0.125
-0.115,-0.135
-0.115,-0.125
-0.105,-0.135
-0.105,-0.125
-0.105,-0.125
-0.095,-0.125
-0.105,-0.125
-0.095,-0.115
-0.105,-0.125
-0.095,-0.125
-0.095,-0.125
-0.095,-0.115
-0.095,-0.115
-0.105,-0.125
-0.105,-0.125
-0.105,-0.115
-0.115,-0.115
-0.125,-0.125
-0.115,-0.125
-0.115,-0.125
-0.115,-0.125
-0.125,-0.125
-0.125,-0.135
-0.125,-0.125
-0.135,-0.125
-0.125,-0.125
-0.125,-0.135
-0.115,-0.125
-0.105,-0.125
-0.095,-0.125
-0.085,-0.115
-0.065,-0.095
-0.075,-0.095
-0.065,-0.095
-0.025,-0.085
-0.015,-0.075
-0.015,-0.075
-0.025,-0.085
-0.045,-0.095
-0.065,-0.085
-0.115,-0.105
-0.125,-0.115
-0.125,-0.135
-0.135,-0.125
-0.125,-0.135
-0.135,-0.135
-0.135,-0.135
-0.135,-0.125
-0.145,-0.125
-0.135,-0.135
-0.135,-0.135
-0.125,-0.125
-0.115,-0.125
-0.125,-0.125
-0.165,-0.125
0.015,-0.125
0.385,-0.095
0.935,-0.045
1.015,-0.025
0.375,-0.135
-0.265,-0.335
-0.375,-0.445
-0.145,-0.335
-0.065,-0.125
-0.095,-0.055
-0.105,-0.055
-0.095,-0.065
-0.085,-0.055
-0.085,-0.055
-0.085,-0.055
-0.075,-0.055
-0.075,-0.055
-0.075,-0.045
-0.055,-0.045
-0.045,-0.045
-0.035,-0.035
-0.025,-0.035
-0.025,-0.025
-0.015,-0.025
0.005,-0.015
0.005,-0.015
0.015,-0.005
0.035,-0.005
0.045,0.005
0.065,0.005
0.085,0.025
0.105,0.045
0.135,0.045
0.145,0.065
0.155,0.065
0.175,0.075
0.185,0.085
0.195,0.085
0.195,0.075
0.175,0.065
0.135,0.055
0.075,0.025
0.025,-0.005
-0.025,-0.035
-0.055,-0.055
-0.085,-0.065
-0.105,-0.085
-0.115,-0.095
-0.125,-0.105
-0.135,-0.105
-0.145,-0.105
-0.135,-0.115
-0.135,-0.105
-0.135,-0.105
-0.125,-0.105
-0.125,-0.105
-0.125,-0.105
-0.125,-0.095
-0.135,-0.105
-0.115,-0.105
-0.115,-0.105
-0.115,-0.095
-0.105,-0.105
-0.105,-0.095
-0.105,-0.095
-0.105,-0.095
-0.115,-0.095
-0.105,-0.105
-0.105,-0.095
-0.115,-0.095
-0.105,-0.095
-0.115,-0.105
-0.115,-0.105
-0.115,-0.095
-0.135,-0.105
-0.125,-0.115
-0.115,-0.105
-0.115,-0.105
-0.105,-0.105
-0.115,-0.115
-0.115,-0.095
-0.115,-0.095
-0.125,-0.095
-0.095,-0.105
-0.075,-0.095
-0.075,-0.075
-0.055,-0.075
-0.065,-0.075
-0.035,-0.065
-0.005,-0.055
-0.025,-0.055
-0.025,-0.065
-0.015,-0.065
-0.045,-0.065
-0.065,-0.075
-0.105,-0.095
-0.115,-0.095
-0.125,-0.095
-0.135,-0.105
-0.135,-0.115
-0.135,-0.115
-0.135,-0.105
-0.125,-0.105
-0.135,-0.105
-0.135,-0.105
-0.125,-0.105
-0.135,-0.105
-0.115,-0.115
-0.165,-0.105
-0.085,-0.105
0.215,-0.095
0.775,-0.055
1.075,0.015
0.435,-0.095
-0.205,-0.305
-0.375,-0.425
-0.155,-0.325
-0.075,-0.115
-0.075,-0.045
-0.095,-0.045
-0.085,-0.045
-0.095,-0.055
-0.095,-0.045
-0.085,-0.045
-0.075,-0.035
-0.075,-0.035
-0.065,-0.035
-0.065,-0.035
-0.055,-0.025
-0.045,-0.025
-0.045,-0.025
-0.025,-0.025
-0.015,-0.005
-0.015,-0.005
0.005,-0.005
0.015,0.005
0.035,0.025
0.045,0.025
0.055,0.025
0.085,0.035
0.105,0.055
0.115,0.065
0.135,0.075
0.155,0.075
0.175,0.095
0.175,0.085
0.185,0.095
0.185,0.095
0.165,0.085
0.135,0.065
0.065,0.035
0.015,0.005
-0.025,-0.025
-0.065,-0.045
-0.095,-0.075
-0.105,-0.085
-0.125,-0.095
-0.125,-0.095
-0.135,-0.105
-0.145,-0.105
-0.135,-0.105
-0.145,-0.105
-0.145,-0.105
-0.135,-0.105
-0.125,-0.105
-0.125,-0.105
-0.125,-0.105
-0.125,-0.105
-0.115,-0.095
-0.135,-0.095
-0.115,-0.095
-0.115,-0.105
-0.105,-0.095
-0.105,-0.095
-0.115,-0.105
-0.115,-0.105
-0.105,-0.095
-0.125,-0.095
-0.115,-0.105
-0.115,-0.095
-0.115,-0.095
-0.115,-0.105
-0.125,-0.105
-0.115,-0.105
-0.125,-0.095
-0.135,-0.105
-0.125,-0.105
-0.125,-0.105
-0.115,-0.105
-0.115,-0.105
-0.115,-0.105
-0.095,-0.105
-0.075,-0.085
-0.075,-0.085
-0.075,-0.085
-0.065,-0.085
-0.055,-0.075
-0.025,-0.065
-0.015,-0.055
-0.025,-0.065
-0.015,-0.065
-0.045,-0.065
-0.085,-0.085
-0.115,-0.095
-0.115,-0.105
-0.125,-0.105
-0.125,-0.115
-0.125,-0.125
-0.135,-0.115
-0.135,-0.115
-0.145,-0.125
-0.135,-0.115
-0.135,-0.115
-0.125,-0.115
-0.125,-0.115
-0.125,-0.125
-0.145,-0.115
-0.145,-0.115
0.075,-0.125
0.575,-0.085
1.065,-0.005
0.745,-0.025
0.105,-0.215
-0.435,-0.405
-0.225,-0.405
-0.105,-0.195
-0.085,-0.075
-0.085,-0.055
-0.095,-0.055
-0.085,-0.055
-0.095,-0.055
-0.085,-0.055
-0.075,-0.045
-0.095,-0.055
-0.085,-0.055
-0.065,-0.055
-0.055,-0.035
-0.045,-0.035
-0.045,-0.045
-0.035,-0.035
-0.025,-0.025
-0.025,-0.025
-0.005,-0.025
0.005,-0.015
0.025,0.005
0.035,0.005
0.055,0.005
0.075,0.015
0.095,0.025
0.095,0.045
0.125,0.055
