ECG1,ECG2
-0.025,-0.075
0.195,-0.085
0.695,-0.085
0.605,-0.205
-0.035,-0.465
-0.225,-0.355
-0.215,0.015
-0.185,-0.005
-0.165,-0.025
-0.125,-0.045
-0.105,-0.045
-0.095,-0.055
-0.095,-0.065
-0.095,-0.075
-0.095,-0.085
-0.095,-0.085
-0.085,-0.085
-0.095,-0.085
-0.095,-0.085
-0.085,-0.095
-0.095,-0.095
-0.085,-0.085
-0.105,-0.085
-0.095,-0.095
-0.075,-0.075
-0.095,-0.085
-0.085,-0.085
-0.085,-0.085
-0.075,-0.085
-0.075,-0.075
-0.065,-0.075
-0.055,-0.075
-0.035,-0.075
-0.025,-0.075
-0.015,-0.075
0.015,-0.075
0.025,-0.075
0.025,-0.075
0.015,-0.085
0.005,-0.095
-0.005,-0.095
-0.025,-0.095
-0.045,-0.105
-0.055,-0.105
-0.065,-0.095
-0.075,-0.085
-0.075,-0.085
-0.075,-0.085
-0.065,-0.095
-0.075,-0.085
-0.085,-0.085
-0.075,-0.095
-0.085,-0.085
-0.085,-0.085
-0.085,-0.085
-0.085,-0.085
-0.075,-0.085
-0.085,-0.075
-0.085,-0.075
-0.075,-0.075
-0.085,-0.075
-0.085,-0.075
-0.085,-0.085
-0.075,-0.085
-0.065,-0.095
-0.045,-0.095
-0.045,-0.085
-0.055,-0.085
-0.055,-0.085
-0.065,-0.085
-0.075,-0.075
-0.075,-0.065
-0.075,-0.085
-0.085,-0.085
-0.085,-0.075
-0.085,-0.065
-0.075,-0.075
-0.075,-0.065
-0.075,-0.075
-0.045,-0.065
0.185,-0.075
0.665,-0.075
0.625,-0.195
-0.015,-0.415
-0.225,-0.305
-0.215,0.005
-0.185,-0.005
-0.175,-0.025
-0.135,-0.045
-0.105,-0.035
-0.105,-0.025
-0.095,-0.055
-0.095,-0.065
-0.095,-0.075
-0.105,-0.075
-0.095,-0.075
-0.085,-0.085
-0.095,-0.075
-0.095,-0.075
-0.085,-0.075
-0.085,-0.085
-0.085,-0.065
-0.085,-0.085
-0.075,-0.075
-0.075,-0.075
-0.075,-0.065
-0.075,-0.075
-0.065,-0.075
-0.065,-0.065
-0.055,-0.065
-0.055,-0.065
-0.035,-0.065
-0.015,-0.055
-0.015,-0.065
0.005,-0.065
0.015,-0.065
0.015,-0.075
0.005,-0.085
-0.015,-0.085
-0.025,-0.085
-0.035,-0.085
-0.055,-0.095
-0.065,-0.085
-0.075,-0.085
-0.075,-0.085
-0.075,-0.085
-0.075,-0.075
-0.085,-0.085
-0.075,-0.075
-0.075,-0.075
-0.085,-0.075
-0.085,-0.075
-0.075,-0.085
-0.075,-0.085
-0.085,-0.075
-0.085,-0.085
-0.075,-0.085
-0.085,-0.075
-0.085,-0.075
-0.085,-0.085
-0.075,-0.085
-0.075,-0.085
-0.065,-0.095
-0.045,-0.095
-0.045,-0.085
-0.055,-0.085
-0.065,-0.085
-0.065,-0.095
-0.075,-0.085
-0.075,-0.075
-0.085,-0.075
-0.085,-0.085
-0.075,-0.065
-0.075,-0.065
-0.085,-0.075
-0.075,-0.085
-0.065,-0.075
-0.065,-0.085
0.125,-0.085
0.585,-0.075
0.685,-0.155
0.105,-0.385
-0.225,-0.385
-0.215,-0.075
-0.195,-0.035
-0.175,-0.025
-0.145,-0.045
-0.105,-0.045
-0.075,-0.045
-0.095,-0.065
-0.095,-0.075
-0.095,-0.085
-0.095,-0.075
-0.095,-0.085
-0.095,-0.085
-0.085,-0.085
-0.075,-0.095
-0.085,-0.085
-0.085,-0.085
-0.085,-0.095
-0.085,-0.085
-0.085,-0.085
-0.085,-0.085
-0.085,-0.085
-0.075,-0.085
-0.075,-0.075
-0.075,-0.075
-0.075,-0.085
-0.055,-0.075
-0.055,-0.055
-0.045,-0.065
-0.025,-0.075
-0.015,-0.075
0.005,-0.075
-0.005,-0.085
0.005,-0.085
-0.005,-0.095
-0.015,-0.105
-0.035,-0.115
-0.045,-0.115
-0.055,-0.115
-0.075,-0.115
-0.075,-0.105
-0.075,-0.105
-0.075,-0.115
-0.075,-0.105
-0.075,-0.105
-0.075,-0.105
-0.065,-0.105
-0.075,-0.105
-0.075,-0.105
-0.075,-0.105
-0.075,-0.105
-0.075,-0.105
-0.075,-0.105
-0.085,-0.105
-0.075,-0.105
-0.065,-0.105
-0.075,-0.105
-0.065,-0.115
-0.065,-0.115
-0.055,-0.125
-0.045,-0.105
-0.055,-0.115
-0.045,-0.115
-0.065,-0.115
-0.065,-0.105
-0.075,-0.105
-0.085,-0.115
-0.075,-0.105
-0.075,-0.095
-0.085,-0.095
-0.075,-0.105
-0.065,-0.095
-0.065,-0.105
-0.065,-0.105
0.085,-0.115
0.575,-0.095
0.705,-0.165
0.065,-0.425
-0.215,-0.415
-0.205,-0.065
-0.175,-0.045
-0.155,-0.065
-0.125,-0.075
-0.095,-0.065
-0.095,-0.065
-0.095,-0.095
-0.085,-0.105
-0.095,-0.105
-0.095,-0.105
-0.095,-0.095
-0.085,-0.105
-0.095,-0.105
-0.095,-0.105
-0.085,-0.105
-0.085,-0.095
-0.095,-0.105
-0.095,-0.105
-0.085,-0.105
-0.085,-0.095
-0.085,-0.095
-0.085,-0.095
-0.085,-0.095
-0.075,-0.095
-0.085,-0.095
-0.075,-0.085
-0.055,-0.085
-0.055,-0.085
-0.035,-0.085
-0.025,-0.085
-0.005,-0.095
0.005,-0.095
0.005,-0.105
-0.015,-0.115
-0.025,-0.125
-0.035,-0.125
-0.055,-0.125
-0.065,-0.115
-0.075,-0.125
-0.075,-0.105
-0.085,-0.105
-0.095,-0.115
-0.085,-0.115
-0.085,-0.115
-0.085,-0.105
-0.095,-0.095
-0.085,-0.105
-0.085,-0.095
-0.095,-0.105
-0.095,-0.105
-0.095,-0.105
-0.085,-0.095
-0.085,-0.105
-0.085,-0.105
-0.085,-0.105
-0.075,-0.115
-0.065,-0.125
-0.055,-0.115
-0.065,-0.105
-0.065,-0.105
-0.075,-0.105
-0.075,-0.115
-0.075,-0.105
-0.075,-0.105
-0.095,-0.115
-0.095,-0.105
-0.095,-0.095
-0.085,-0.085
-0.085,-0.095
-0.085,-0.095
-0.075,-0.105
-0.055,-0.095
0.185,-0.095
0.755,-0.075
0.695,-0.205
0.055,-0.495
-0.255,-0.395
-0.235,-0.025
-0.195,-0.015
-0.165,-0.045
-0.125,-0.045
-0.105,-0.045
-0.105,-0.065
-0.105,-0.075
-0.105,-0.085
-0.105,-0.085
-0.105,-0.095
-0.095,-0.095
-0.095,-0.095
-0.095,-0.095
-0.095,-0.095
-0.085,-0.095
-0.095,-0.095
-0.095,-0.095
-0.095,-0.095
-0.085,-0.095
-0.095,-0.095
-0.085,-0.085
-0.085,-0.085
-0.085,-0.085
-0.085,-0.075
-0.075,-0.075
-0.075,-0.085
-0.045,-0.075
-0.045,-0.075
-0.035,-0.075
-0.015,-0.085
0.005,-0.075
0.005,-0.075
-0.005,-0.085
-0.015,-0.105
-0.015,-0.105
-0.045,-0.105
-0.055,-0.105
-0.065,-0.105
-0.065,-0.105
-0.075,-0.105
-0.085,-0.095
-0.075,-0.095
-0.075,-0.085
-0.075,-0.085
-0.075,-0.085
-0.085,-0.095
-0.085,-0.085
-0.075,-0.095
-0.085,-0.095
-0.085,-0.095
-0.075,-0.085
-0.075,-0.075
-0.075,-0.085
-0.075,-0.085
-0.075,-0.085
-0.055,-0.095
-0.065,-0.095
-0.045,-0.095
-0.045,-0.095
-0.055,-0.085
-0.055,-0.085
-0.065,-0.095
-0.075,-0.085
-0.075,-0.075
-0.085,-0.085
-0.085,-0.085
-0.065,-0.075
-0.065,-0.065
-0.075,-0.075
-0.065,-0.085
-0.075,-0.075
0.005,-0.075
0.435,-0.075
0.845,-0.075
0.405,-0.275
-0.195,-0.485
-0.225,-0.205
-0.205,0.035
-0.165,-0.015
-0.135,-0.025
-0.095,-0.025
-0.085,-0.025
-0.075,-0.035
-0.095,-0.055
-0.085,-0.075
-0.085,-0.065
-0.085,-0.065
-0.085,-0.065
-0.075,-0.065
-0.075,-0.065
-0.075,-0.065
-0.075,-0.075
-0.075,-0.075
-0.075,-0.075
-0.065,-0.065
-0.075,-0.065
-0.075,-0.065
-0.065,-0.065
-0.065,-0.065
-0.055,-0.065
-0.065,-0.065
-0.045,-0.075
-0.045,-0.055
-0.025,-0.055
-0.015,-0.045
0.005,-0.055
0.025,-0.065
0.025,-0.065
0.035,-0.065
0.025,-0.075
0.015,-0.075
-0.015,-0.085
-0.025,-0.085
-0.025,-0.085
-0.035,-0.075
-0.045,-0.075
-0.045,-0.075
-0.045,-0.065
-0.055,-0.065
-0.055,-0.075
-0.055,-0.065
-0.055,-0.065
-0.045,-0.065
-0.055,-0.065
-0.055,-0.065
-0.045,-0.065
-0.045,-0.055
-0.055,-0.065
-0.055,-0.065
-0.055,-0.065
-0.045,-0.065
-0.045,-0.065
-0.035,-0.075
-0.035,-0.075
-0.035,-0.085
-0.015,-0.075
-0.025,-0.065
-0.025,-0.075
-0.035,-0.075
-0.035,-0.065
-0.045,-0.055
-0.045,-0.065
-0.045,-0.065
-0.045,-0.065
-0.055,-0.055
-0.045,-0.065
-0.035,-0.055
-0.045,-0.055
-0.035,-0.065
0.075,-0.065
0.515,-0.055
0.845,-0.085
0.355,-0.315
-0.185,-0.455
-0.185,-0.135
-0.165,0.055
-0.145,-0.005
-0.095,-0.025
-0.065,-0.015
-0.065,-0.015
-0.055,-0.035
-0.055,-0.045
-0.045,-0.055
-0.055,-0.055
-0.055,-0.055
-0.045,-0.065
-0.045,-0.065
-0.045,-0.055
-0.055,-0.055
-0.055,-0.065
-0.045,-0.065
-0.045,-0.065
-0.045,-0.065
-0.055,-0.055
-0.045,-0.065
-0.035,-0.055
-0.045,-0.055
-0.035,-0.055
-0.025,-0.045
-0.025,-0.045
-0.005,-0.045
0.015,-0.045
0.025,-0.055
0.025,-0.045
0.055,-0.045
0.065,-0.055
0.065,-0.055
0.055,-0.065
0.035,-0.065
0.015,-0.075
0.005,-0.085
-0.015,-0.065
-0.025,-0.065
-0.035,-0.075
-0.035,-0.075
-0.035,-0.065
-0.045,-0.065
-0.035,-0.065
-0.035,-0.055
-0.045,-0.055
-0.045,-0.065
-0.045,-0.065
-0.025,-0.065
-0.045,-0.055
-0.045,-0.055
-0.035,-0.055
-0.035,-0.055
-0.035,-0.055
-0.045,-0.055
-0.035,-0.055
-0.025,-0.055
-0.025,-0.065
-0.025,-0.065
-0.005,-0.075
-0.015,-0.055
-0.015,-0.055
-0.015,-0.055
-0.025,-0.065
-0.025,-0.045
-0.035,-0.045
-0.045,-0.055
-0.035,-0.055
-0.045,-0.045
-0.035,-0.035
-0.035,-0.035
-0.025,-0.045
-0.025,-0.045
0.045,-0.055
0.455,-0.055
0.855,-0.065
0.425,-0.255
-0.165,-0.435
-0.195,-0.155
-0.165,0.055
-0.135,-0.005
-0.095,-0.015
-0.065,-0.015
-0.055,-0.015
-0.055,-0.025
-0.055,-0.055
-0.065,-0.065
-0.055,-0.055
-0.055,-0.055
-0.055,-0.065
-0.055,-0.055
-0.055,-0.065
-0.055,-0.065
-0.055,-0.065
-0.055,-0.065
-0.055,-0.065
-0.055,-0.055
-0.045,-0.055
-0.055,-0.055
-0.045,-0.065
-0.035,-0.055
-0.035,-0.045
-0.035,-0.055
-0.015,-0.055
-0.015,-0.045
-0.005,-0.055
0.015,-0.045
0.025,-0.045
0.045,-0.045
0.055,-0.045
0.045,-0.055
0.045,-0.065
0.025,-0.065
0.005,-0.075
-0.015,-0.075
-0.025,-0.075
-0.035,-0.065
-0.045,-0.065
-0.045,-0.055
-0.045,-0.055
-0.045,-0.055
-0.055,-0.055
-0.055,-0.055
-0.055,-0.055
-0.055,-0.055
-0.055,-0.045
-0.055,-0.045
-0.045,-0.055
-0.035,-0.045
-0.045,-0.055
-0.045,-0.055
-0.045,-0.065
-0.045,-0.055
-0.045,-0.055
-0.055,-0.065
-0.045,-0.065
-0.025,-0.075
-0.015,-0.075
-0.025,-0.065
-0.025,-0.065
-0.025,-0.055
-0.035,-0.055
-0.045,-0.055
-0.045,-0.065
-0.045,-0.055
-0.045,-0.055
-0.045,-0.045
-0.045,-0.055
-0.035,-0.055
-0.045,-0.055
-0.035,-0.055
-0.015,-0.065
0.255,-0.065
0.715,-0.045
0.585,-0.185
-0.035,-0.425
-0.185,-0.285
-0.165,0.025
-0.145,-0.005
-0.135,-0.015
-0.095,-0.025
-0.065,-0.015
-0.065,-0.015
-0.055,-0.045
-0.065,-0.055
-0.055,-0.055
-0.065,-0.055
-0.055,-0.055
-0.055,-0.065
-0.055,-0.055
-0.055,-0.055
-0.045,-0.065
-0.065,-0.065
-0.045,-0.065
-0.055,-0.055
-0.045,-0.055
-0.035,-0.065
-0.045,-0.055
-0.045,-0.055
-0.035,-0.055
-0.025,-0.055
-0.025,-0.045
-0.005,-0.045
-0.005,-0.045
0.015,-0.045
0.025,-0.045
0.045,-0.045
0.045,-0.055
0.055,-0.065
0.045,-0.065
0.015,-0.075
0.005,-0.095
0.005,-0.085
-0.025,-0.085
-0.025,-0.075
-0.025,-0.075
-0.045,-0.085
-0.035,-0.075
-0.045,-0.065
-0.035,-0.075
-0.035,-0.075
-0.025,-0.065
-0.045,-0.065
-0.035,-0.075
-0.035,-0.065
-0.035,-0.065
-0.045,-0.065
-0.035,-0.075
-0.045,-0.075
-0.045,-0.065
-0.045,-0.075
-0.035,-0.065
-0.025,-0.075
-0.025,-0.085
-0.025,-0.085
-0.015,-0.085
-0.015,-0.075
-0.015,-0.085
-0.025,-0.085
-0.025,-0.075
-0.025,-0.055
-0.035,-0.075
-0.045,-0.085
-0.035,-0.075
-0.035,-0.065
-0.035,-0.065
-0.035,-0.065
-0.035,-0.075
-0.025,-0.085
0.005,-0.085
0.275,-0.075
0.735,-0.075
0.545,-0.215
-0.085,-0.465
-0.175,-0.275
-0.145,0.005
-0.135,-0.035
-0.115,-0.035
-0.085,-0.045
-0.055,-0.035
-0.045,-0.045
-0.055,-0.075
-0.055,-0.085
-0.045,-0.095
-0.045,-0.085
-0.045,-0.085
-0.045,-0.085
-0.045,-0.085
-0.035,-0.085
-0.045,-0.085
-0.045,-0.085
-0.045,-0.085
-0.035,-0.075
-0.045,-0.095
-0.045,-0.085
-0.035,-0.085
-0.025,-0.085
-0.035,-0.085
-0.035,-0.075
-0.025,-0.075
-0.015,-0.065
-0.005,-0.065
-0.005,-0.075
0.015,-0.065
0.035,-0.075
0.045,-0.075
0.055,-0.075
0.055,-0.095
0.035,-0.095
0.025,-0.115
0.005,-0.115
-0.005,-0.115
-0.015,-0.115
-0.025,-0.095
-0.025,-0.115
-0.025,-0.105
-0.025,-0.105
-0.025,-0.095
-0.025,-0.095
-0.035,-0.095
-0.015,-0.095
-0.035,-0.095
-0.025,-0.095
-0.035,-0.095
-0.025,-0.085
-0.035,-0.095
-0.035,-0.085
-0.025,-0.095
-0.025,-0.095
-0.025,-0.095
-0.025,-0.095
-0.015,-0.095
-0.025,-0.115
0.005,-0.105
-0.005,-0.085
-0.005,-0.095
-0.005,-0.095
-0.025,-0.095
-0.025,-0.095
-0.025,-0.095
-0.025,-0.095
-0.035,-0.095
-0.025,-0.085
-0.025,-0.085
-0.015,-0.085
-0.025,-0.075
-0.035,-0.085
0.045,-0.095
0.445,-0.085
0.875,-0.085
0.495,-0.275
-0.135,-0.515
-0.175,-0.235
-0.155,0.025
-0.125,-0.025
-0.105,-0.035
-0.055,-0.045
-0.055,-0.035
-0.055,-0.055
-0.055,-0.075
-0.045,-0.075
-0.045,-0.085
-0.055,-0.085
-0.045,-0.085
-0.045,-0.085
-0.045,-0.085
-0.035,-0.085
-0.035,-0.095
-0.035,-0.085
-0.035,-0.075
-0.045,-0.085
-0.045,-0.085
-0.035,-0.085
-0.035,-0.075
-0.035,-0.075
-0.035,-0.075
-0.015,-0.075
-0.015,-0.065
-0.015,-0.065
-0.005,-0.065
0.015,-0.065
0.025,-0.065
0.035,-0.065
0.055,-0.065
0.065,-0.065
0.055,-0.075
0.045,-0.085
0.035,-0.095
0.015,-0.095
0.005,-0.105
-0.005,-0.095
-0.015,-0.095
-0.005,-0.085
-0.015,-0.085
-0.025,-0.085
-0.025,-0.085
-0.015,-0.085
-0.025,-0.085
-0.035,-0.085
-0.025,-0.085
-0.025,-0.085
-0.035,-0.085
-0.025,-0.085
-0.025,-0.085
-0.025,-0.075
-0.025,-0.085
-0.025,-0.075
-0.025,-0.085
-0.015,-0.095
-0.015,-0.095
0.005,-0.105
-0.005,-0.095
-0.005,-0.095
-0.005,-0.085
-0.025,-0.095
-0.025,-0.075
-0.015,-0.075
-0.025,-0.095
-0.035,-0.085
-0.045,-0.075
-0.025,-0.075
-0.025,-0.065
-0.015,-0.075
-0.025,-0.085
0.055,-0.075
0.395,-0.085
0.865,-0.075
0.565,-0.255
-0.075,-0.495
-0.195,-0.305
-0.175,0.025
-0.135,-0.005
-0.095,-0.025
-0.065,-0.025
-0.065,-0.025
-0.055,-0.055
-0.055,-0.065
-0.055,-0.075
-0.055,-0.075
-0.045,-0.085
-0.045,-0.075
-0.045,-0.075
-0.045,-0.075
-0.045,-0.085
-0.045,-0.085
-0.045,-0.085
-0.055,-0.075
-0.045,-0.085
-0.045,-0.075
-0.055,-0.075
-0.035,-0.075
-0.055,-0.065
-0.035,-0.075
-0.035,-0.065
-0.025,-0.065
-0.025,-0.065
-0.005,-0.065
0.005,-0.065
0.005,-0.065
0.025,-0.065
0.035,-0.065
0.055,-0.065
0.045,-0.075
0.025,-0.095
0.025,-0.095
-0.005,-0.095
-0.025,-0.095
-0.035,-0.095
-0.035,-0.085
-0.035,-0.085
-0.055,-0.085
-0.055,-0.075
-0.045,-0.075
-0.055,-0.075
-0.045,-0.075
-0.045,-0.075
-0.045,-0.085
-0.045,-0.085
-0.055,-0.065
-0.055,-0.085
-0.045,-0.075
-0.055,-0.085
-0.055,-0.075
-0.055,-0.085
-0.045,-0.075
-0.045,-0.085
-0.035,-0.095
-0.035,-0.095
-0.005,-0.085
-0.025,-0.075
-0.035,-0.085
-0.025,-0.095
-0.045,-0.085
-0.055,-0.065
-0.055,-0.075
-0.055,-0.085
-0.055,-0.075
-0.055,-0.075
-0.055,-0.075
-0.045,-0.075
-0.045,-0.075
-0.045,-0.075
0.065,-0.085
0.525,-0.085
0.845,-0.105
0.315,-0.325
-0.205,-0.485
-0.215,-0.165
-0.185,0.045
-0.155,-0.015
-0.115,-0.025
-0.085,-0.035
-0.065,-0.035
-0.085,-0.045
-0.075,-0.075
-0.075,-0.085
-0.075,-0.075
-0.075,-0.085
-0.075,-0.075
-0.075,-0.085
-0.075,-0.085
-0.075,-0.085
-0.075,-0.085
-0.075,-0.085
-0.075,-0.095
-0.085,-0.085
-0.075,-0.085
-0.075,-0.085
-0.075,-0.085
-0.075,-0.075
-0.075,-0.075
-0.065,-0.065
-0.055,-0.075
-0.035,-0.065
-0.025,-0.065
-0.025,-0.075
-0.005,-0.065
0.015,-0.065
0.025,-0.065
0.015,-0.075
0.005,-0.085
-0.005,-0.085
-0.025,-0.105
-0.045,-0.115
-0.045,-0.105
-0.065,-0.095
-0.065,-0.095
-0.075,-0.085
-0.065,-0.085
-0.075,-0.095
-0.075,-0.095
-0.075,-0.095
-0.065,-0.085
-0.075,-0.085
-0.085,-0.075
-0.075,-0.095
-0.065,-0.085
-0.065,-0.085
-0.075,-0.085
-0.075,-0.095
-0.075,-0.085
-0.075,-0.085
-0.075,-0.085
-0.075,-0.085
-0.055,-0.105
-0.055,-0.105
-0.045,-0.105
-0.045,-0.095
-0.045,-0.085
-0.055,-0.085
-0.065,-0.085
-0.055,-0.085
-0.065,-0.075
-0.065,-0.095
-0.075,-0.085
-0.075,-0.085
-0.065,-0.075
-0.065,-0.075
-0.065,-0.075
-0.065,-0.085
0.005,-0.085
0.365,-0.085
0.825,-0.085
0.465,-0.265
-0.175,-0.495
-0.235,-0.235
-0.195,0.045
-0.185,-0.035
-0.145,-0.025
-0.105,-0.035
-0.095,-0.035
-0.085,-0.055
-0.085,-0.075
-0.095,-0.075
-0.085,-0.085
-0.095,-0.085
-0.085,-0.095
-0.085,-0.085
-0.095,-0.085
-0.075,-0.085
-0.085,-0.085
-0.075,-0.085
-0.085,-0.085
-0.075,-0.085
-0.075,-0.075
-0.075,-0.085
-0.075,-0.085
-0.065,-0.085
-0.065,-0.085
-0.065,-0.085
-0.055,-0.075
-0.045,-0.075
-0.025,-0.075
-0.015,-0.075
-0.005,-0.075
0.025,-0.085
0.035,-0.085
0.025,-0.085
0.015,-0.095
-0.005,-0.095
-0.025,-0.105
-0.035,-0.095
-0.055,-0.095
-0.055,-0.095
-0.055,-0.085
-0.065,-0.085
-0.065,-0.095
-0.075,-0.095
-0.075,-0.085
-0.075,-0.085
-0.075,-0.085
-0.065,-0.085
-0.065,-0.085
-0.065,-0.085
-0.075,-0.085
-0.075,-0.085
-0.065,-0.085
-0.075,-0.085
-0.075,-0.085
-0.065,-0.095
-0.065,-0.085
-0.065,-0.095
-0.055,-0.105
-0.045,-0.115
-0.035,-0.105
-0.045,-0.095
-0.045,-0.095
-0.045,-0.095
-0.055,-0.095
-0.065,-0.085
-0.065,-0.095
-0.075,-0.095
-0.065,-0.085
-0.065,-0.075
-0.075,-0.075
-0.065,-0.085
-0.065,-0.065
-0.055,-0.085
0.045,-0.085
0.485,-0.085
0.785,-0.105
0.255,-0.315
-0.205,-0.455
-0.205,-0.125
-0.185,0.025
-0.175,-0.035
-0.135,-0.035
-0.095,-0.045
-0.085,-0.035
-0.095,-0.055
-0.085,-0.065
-0.085,-0.075
-0.085,-0.075
-0.085,-0.075
-0.085,-0.075
-0.085,-0.085
-0.075,-0.085
-0.075,-0.075
-0.085,-0.075
-0.085,-0.085
-0.065,-0.085
-0.075,-0.085
-0.075,-0.085
-0.075,-0.085
-0.065,-0.085
-0.065,-0.075
-0.055,-0.065
-0.045,-0.075
-0.035,-0.075
-0.035,-0.085
-0.035,-0.075
-0.015,-0.075
0.005,-0.085
0.025,-0.075
0.025,-0.085
0.035,-0.095
0.015,-0.095
0.005,-0.095
-0.025,-0.105
-0.035,-0.105
-0.035,-0.105
-0.055,-0.095
-0.065,-0.095
-0.065,-0.095
-0.065,-0.085
-0.065,-0.095
-0.065,-0.085
-0.065,-0.085
-0.065,-0.085
-0.075,-0.085
-0.075,-0.085
-0.065,-0.095
-0.065,-0.085
-0.075,-0.085
-0.075,-0.085
-0.075,-0.095
-0.075,-0.085
-0.075,-0.085
-0.065,-0.085
-0.065,-0.095
-0.055,-0.095
-0.055,-0.095
-0.045,-0.095
-0.055,-0.095
-0.045,-0.095
-0.055,-0.095
-0.065,-0.095
-0.055,-0.085
-0.065,-0.095
-0.075,-0.085
-0.075,-0.085
-0.075,-0.085
-0.065,-0.085
-0.065,-0.085
-0.055,-0.085
-0.055,-0.085
0.095,-0.095
0.535,-0.085
0.715,-0.135
0.135,-0.365
-0.195,-0.425
-0.215,-0.135
-0.175,-0.015
-0.165,-0.035
-0.125,-0.055
-0.095,-0.035
-0.085,-0.045
-0.095,-0.065
-0.075,-0.075
-0.075,-0.095
-0.085,-0.095
-0.075,-0.105
-0.085,-0.095
-0.075,-0.085
-0.085,-0.085
-0.075,-0.095
-0.075,-0.095
-0.075,-0.095
-0.075,-0.095
-0.075,-0.095
-0.065,-0.095
-0.075,-0.085
-0.075,-0.095
-0.075,-0.095
-0.065,-0.085
-0.065,-0.085
-0.055,-0.095
-0.045,-0.085
-0.025,-0.075
-0.035,-0.075
-0.015,-0.075
-0.005,-0.085
0.015,-0.095
0.025,-0.075
0.015,-0.095
0.005,-0.115
-0.005,-0.125
-0.035,-0.125
-0.045,-0.125
-0.055,-0.115
-0.055,-0.115
-0.065,-0.105
-0.065,-0.105
-0.065,-0.105
-0.065,-0.105
-0.065,-0.105
-0.065,-0.095
-0.065,-0.095
-0.065,-0.105
-0.065,-0.105
-0.075,-0.105
-0.075,-0.105
-0.065,-0.105
-0.075,-0.105
-0.075,-0.105
-0.065,-0.105
-0.065,-0.115
-0.065,-0.105
-0.065,-0.115
-0.065,-0.125
-0.045,-0.125
-0.045,-0.115
-0.055,-0.115
-0.055,-0.115
-0.055,-0.115
-0.065,-0.105
-0.065,-0.095
-0.075,-0.115
-0.075,-0.115
-0.075,-0.095
-0.075,-0.095
-0.075,-0.105
-0.065,-0.105
-0.065,-0.105
-0.065,-0.115
0.095,-0.115
0.615,-0.105
0.705,-0.165
0.065,-0.435
-0.225,-0.435
-0.205,-0.075
-0.175,-0.045
-0.165,-0.055
-0.135,-0.075
-0.095,-0.065
-0.095,-0.075
-0.095,-0.095
-0.095,-0.115
-0.095,-0.115
-0.085,-0.115
-0.085,-0.115
-0.085,-0.115
-0.075,-0.115
-0.085,-0.115
-0.085,-0.115
-0.085,-0.115
-0.085,-0.115
-0.085,-0.105
-0.085,-0.105
-0.085,-0.115
-0.075,-0.105
-0.085,-0.105
-0.085,-0.105
-0.075,-0.105
-0.075,-0.095
-0.065,-0.095
-0.045,-0.095
-0.035,-0.095
-0.025,-0.085
0.005,-0.085
0.005,-0.095
0.015,-0.105
0.015,-0.115
-0.005,-0.125
-0.015,-0.125
-0.035,-0.135
-0.045,-0.135
-0.055,-0.125
-0.065,-0.125
-0.065,-0.125
-0.075,-0.115
-0.075,-0.115
-0.075,-0.115
-0.075,-0.115
-0.065,-0.115
-0.075,-0.115
-0.075,-0.115
-0.085,-0.115
-0.075,-0.105
-0.075,-0.105
-0.085,-0.115
-0.085,-0.115
-0.075,-0.105
-0.075,-0.115
-0.085,-0.115
-0.065,-0.125
-0.065,-0.125
-0.055,-0.125
-0.055,-0.115
-0.055,-0.115
-0.055,-0.115
-0.065,-0.115
-0.065,-0.105
-0.075,-0.105
-0.075,-0.105
-0.085,-0.115
-0.095,-0.105
-0.085,-0.095
-0.085,-0.095
-0.075,-0.105
-0.075,-0.095
-0.075,-0.105
0.035,-0.105
0.555,-0.105
0.815,-0.115
0.175,-0.375
-0.235,-0.515
-0.225,-0.135
-0.195,-0.005
-0.175,-0.045
-0.125,-0.055
-0.105,-0.055
-0.105,-0.065
-0.095,-0.075
-0.095,-0.095
-0.095,-0.095
-0.105,-0.105
-0.095,-0.105
-0.085,-0.105
-0.105,-0.095
-0.095,-0.115
-0.095,-0.105
-0.095,-0.105
-0.095,-0.095
-0.095,-0.105
-0.095,-0.115
-0.095,-0.105
-0.085,-0.105
-0.085,-0.105
-0.095,-0.105
-0.085,-0.095
-0.085,-0.085
-0.085,-0.085
-0.075,-0.085
-0.055,-0.085
-0.045,-0.085
-0.035,-0.085
-0.015,-0.085
0.005,-0.085
-0.005,-0.095
-0.005,-0.105
-0.025,-0.115
-0.035,-0.115
-0.055,-0.115
-0.065,-0.125
-0.065,-0.125
-0.075,-0.105
-0.085,-0.105
-0.085,-0.095
-0.085,-0.105
-0.075,-0.095
-0.085,-0.095
-0.085,-0.095
-0.075,-0.095
-0.075,-0.105
-0.075,-0.095
-0.085,-0.095
-0.085,-0.095
-0.075,-0.095
-0.075,-0.075
-0.075,-0.085
-0.075,-0.095
-0.065,-0.095
-0.075,-0.105
-0.055,-0.115
-0.045,-0.105
-0.055,-0.095
-0.055,-0.105
-0.065,-0.095
-0.055,-0.085
-0.065,-0.085
-0.065,-0.085
-0.075,-0.095
-0.075,-0.095
-0.075,-0.085
-0.075,-0.085
-0.065,-0.075
-0.055,-0.085
-0.065,-0.075
0.085,-0.085
0.485,-0.085
0.845,-0.105
0.395,-0.295
-0.185,-0.495
-0.245,-0.255
-0.205,0.015
-0.175,-0.015
-0.145,-0.025
-0.105,-0.035
-0.095,-0.045
-0.085,-0.055
-0.095,-0.075
-0.085,-0.085
-0.085,-0.085
-0.085,-0.085
-0.085,-0.085
-0.085,-0.095
-0.085,-0.095
-0.075,-0.085
-0.075,-0.085
-0.085,-0.085
-0.085,-0.085
-0.075,-0.085
-0.075,-0.085
-0.085,-0.085
-0.075,-0.075
-0.085,-0.075
-0.075,-0.075
-0.065,-0.075
-0.055,-0.075
-0.045,-0.065
-0.035,-0.065
-0.025,-0.065
-0.025,-0.075
0.005,-0.065
0.015,-0.065
0.025,-0.075
0.025,-0.075
0.015,-0.085
-0.005,-0.095
-0.015,-0.095
-0.035,-0.095
-0.045,-0.085
-0.055,-0.085
-0.065,-0.085
-0.055,-0.085
-0.055,-0.075
-0.065,-0.085
-0.065,-0.075
-0.055,-0.075
-0.055,-0.075
-0.065,-0.075
-0.055,-0.075
-0.065,-0.085
-0.055,-0.075
-0.055,-0.075
-0.055,-0.075
-0.055,-0.075
-0.055,-0.075
-0.055,-0.075
-0.055,-0.075
-0.035,-0.095
-0.025,-0.085
-0.025,-0.095
-0.035,-0.085
-0.035,-0.075
-0.035,-0.075
-0.045,-0.075
-0.045,-0.055
-0.045,-0.075
-0.045,-0.075
-0.055,-0.075
-0.055,-0.065
-0.055,-0.065
-0.045,-0.065
-0.045,-0.065
-0.045,-0.065
0.075,-0.075
0.545,-0.075
0.845,-0.085
0.375,-0.315
-0.175,-0.465
-0.205,-0.165
-0.185,0.045
-0.155,-0.005
-0.115,-0.005
-0.075,-0.015
-0.075,-0.015
-0.065,-0.045
-0.065,-0.065
-0.065,-0.065
-0.065,-0.065
-0.065,-0.065
-0.065,-0.075
-0.065,-0.055
-0.065,-0.065
-0.065,-0.065
-0.065,-0.065
-0.055,-0.075
-0.055,-0.055
-0.065,-0.065
-0.055,-0.065
-0.045,-0.065
-0.055,-0.055
-0.045,-0.065
-0.055,-0.055
-0.045,-0.055
-0.025,-0.055
-0.025,-0.045
-0.005,-0.055
0.005,-0.055
0.015,-0.055
0.035,-0.055
0.045,-0.055
0.055,-0.055
0.035,-0.065
0.025,-0.065
-0.005,-0.075
-0.005,-0.075
-0.025,-0.075
-0.035,-0.075
-0.045,-0.075
-0.045,-0.065
-0.045,-0.065
-0.055,-0.065
-0.055,-0.065
-0.055,-0.065
-0.055,-0.055
-0.055,-0.055
-0.055,-0.055
-0.055,-0.055
-0.055,-0.055
-0.055,-0.055
-0.045,-0.055
-0.055,-0.055
-0.055,-0.055
-0.055,-0.055
-0.055,-0.065
-0.045,-0.055
-0.045,-0.065
-0.035,-0.075
-0.025,-0.075
-0.015,-0.065
-0.025,-0.055
-0.035,-0.065
-0.045,-0.075
-0.045,-0.055
-0.045,-0.055
-0.055,-0.075
-0.055,-0.055
-0.055,-0.055
-0.055,-0.055
-0.055,-0.055
-0.045,-0.065
-0.035,-0.065
-0.005,-0.065
0.295,-0.065
0.825,-0.055
0.605,-0.185
-0.035,-0.455
-0.225,-0.285
-0.185,0.055
-0.155,0.005
-0.135,0.005
-0.095,-0.015
-0.065,-0.005
-0.065,-0.015
-0.075,-0.035
-0.065,-0.055
-0.065,-0.055
-0.065,-0.055
-0.055,-0.055
-0.065,-0.065
-0.065,-0.065
-0.055,-0.055
-0.065,-0.065
-0.065,-0.055
-0.065,-0.055
-0.055,-0.055
-0.065,-0.055
-0.065,-0.055
-0.055,-0.065
-0.045,-0.055
-0.045,-0.065
-0.045,-0.055
-0.035,-0.055
-0.035,-0.045
-0.025,-0.055
-0.005,-0.055
0.005,-0.045
0.035,-0.055
0.045,-0.055
0.045,-0.055
0.045,-0.065
0.025,-0.065
0.015,-0.075
-0.005,-0.085
-0.025,-0.085
-0.025,-0.075
-0.045,-0.075
-0.045,-0.075
-0.045,-0.065
-0.045,-0.065
-0.045,-0.065
-0.055,-0.065
-0.055,-0.065
-0.045,-0.065
-0.055,-0.055
-0.055,-0.065
-0.055,-0.065
-0.055,-0.065
-0.055,-0.065
-0.055,-0.065
-0.055,-0.065
-0.045,-0.065
-0.055,-0.065
-0.055,-0.055
-0.055,-0.075
-0.045,-0.075
-0.035,-0.075
-0.015,-0.065
-0.025,-0.065
-0.035,-0.075
-0.035,-0.055
-0.045,-0.065
-0.045,-0.055
-0.055,-0.055
-0.045,-0.065
-0.055,-0.055
-0.065,-0.065
-0.055,-0.055
-0.055,-0.045
-0.055,-0.045
-0.045,-0.055
-0.015,-0.055
0.295,-0.065
0.775,-0.065
0.485,-0.225
-0.135,-0.435
-0.205,-0.175
-0.175,0.055
-0.155,-0.005
-0.115,-0.015
-0.085,-0.015
-0.075,-0.015
-0.065,-0.035
-0.065,-0.055
-0.075,-0.055
-0.065,-0.065
-0.065,-0.065
-0.065,-0.065
-0.065,-0.065
-0.065,-0.065
-0.065,-0.065
-0.055,-0.065
-0.065,-0.065
-0.055,-0.065
-0.055,-0.065
-0.045,-0.055
-0.045,-0.065
-0.045,-0.065
-0.045,-0.075
-0.035,-0.065
-0.035,-0.055
-0.025,-0.055
-0.015,-0.065
0.005,-0.055
0.015,-0.055
0.025,-0.055
0.045,-0.065
0.045,-0.065
0.035,-0.065
0.025,-0.075
0.015,-0.085
-0.015,-0.085
-0.035,-0.085
-0.045,-0.075
-0.035,-0.075
-0.045,-0.075
-0.055,-0.065
-0.065,-0.065
-0.065,-0.075
-0.045,-0.065
-0.045,-0.065
-0.055,-0.065
-0.045,-0.065
-0.045,-0.065
-0.055,-0.065
-0.065,-0.065
-0.055,-0.065
-0.055,-0.065
-0.055,-0.065
-0.065,-0.065
-0.055,-0.065
-0.055,-0.065
-0.045,-0.075
-0.045,-0.075
-0.035,-0.085
-0.025,-0.085
-0.035,-0.065
-0.035,-0.075
-0.045,-0.075
-0.035,-0.065
-0.045,-0.065
-0.055,-0.075
-0.055,-0.075
-0.055,-0.065
-0.055,-0.065
-0.055,-0.055
-0.045,-0.075
-0.035,-0.065
-0.035,-0.075
0.065,-0.065
0.465,-0.075
0.735,-0.105
0.265,-0.325
-0.165,-0.425
-0.165,-0.115
-0.135,0.005
-0.125,-0.025
-0.105,-0.035
-0.055,-0.025
-0.045,-0.035
-0.055,-0.045
-0.055,-0.065
-0.045,-0.065
-0.045,-0.075
-0.055,-0.085
-0.055,-0.075
-0.055,-0.075
-0.045,-0.075
-0.055,-0.065
-0.055,-0.075
-0.055,-0.085
-0.045,-0.085
-0.045,-0.075
-0.055,-0.085
-0.045,-0.075
-0.045,-0.075
-0.045,-0.065
-0.035,-0.075
-0.045,-0.075
-0.025,-0.065
-0.015,-0.065
-0.015,-0.065
0.005,-0.065
0.015,-0.065
0.025,-0.065
0.035,-0.065
0.045,-0.075
0.025,-0.095
0.005,-0.105
-0.005,-0.105
-0.015,-0.105
-0.025,-0.105
-0.025,-0.095
-0.045,-0.105
-0.035,-0.105
-0.035,-0.095
-0.045,-0.085
-0.045,-0.085
-0.045,-0.095
-0.035,-0.095
-0.035,-0.095
-0.045,-0.095
-0.035,-0.095
-0.045,-0.095
-0.045,-0.095
-0.045,-0.085
-0.045,-0.085
-0.035,-0.095
-0.045,-0.095
-0.035,-0.085
-0.035,-0.095
-0.025,-0.095
-0.035,-0.105
-0.025,-0.105
-0.015,-0.095
-0.015,-0.095
-0.025,-0.085
-0.025,-0.095
-0.025,-0.095
-0.025,-0.085
-0.035,-0.095
-0.045,-0.095
-0.035,-0.085
-0.045,-0.075
-0.035,-0.075
-0.035,-0.075
-0.025,-0.085
-0.025,-0.085
0.085,-0.085
0.525,-0.075
0.775,-0.115
0.215,-0.355
-0.175,-0.445
-0.165,-0.115
-0.145,-0.015
-0.115,-0.025
-0.095,-0.045
-0.065,-0.035
-0.045,-0.045
-0.045,-0.055
-0.055,-0.075
-0.045,-0.085
-0.045,-0.085
-0.045,-0.085
-0.045,-0.085
-0.045,-0.075
-0.045,-0.085
-0.045,-0.085
-0.045,-0.085
-0.045,-0.085
-0.045,-0.085
-0.045,-0.085
-0.045,-0.075
-0.045,-0.075
-0.035,-0.085
-0.045,-0.075
-0.035,-0.075
-0.035,-0.075
-0.025,-0.075
-0.015,-0.065
-0.015,-0.065
0.005,-0.065
0.025,-0.065
0.035,-0.065
0.045,-0.075
0.055,-0.075
0.045,-0.095
0.035,-0.105
0.015,-0.115
0.005,-0.105
-0.015,-0.105
-0.025,-0.105
-0.025,-0.105
-0.025,-0.095
-0.025,-0.095
-0.025,-0.095
-0.035,-0.095
-0.035,-0.095
-0.035,-0.095
-0.025,-0.095
-0.035,-0.095
-0.035,-0.085
-0.025,-0.095
-0.025,-0.085
-0.035,-0.095
-0.035,-0.095
-0.035,-0.095
-0.035,-0.095
-0.025,-0.095
-0.025,-0.095
-0.015,-0.105
-0.005,-0.105
-0.005,-0.105
-0.015,-0.095
-0.015,-0.095
-0.015,-0.095
-0.015,-0.095
-0.025,-0.075
-0.025,-0.095
-0.025,-0.095
-0.035,-0.085
-0.035,-0.075
-0.035,-0.085
-0.025,-0.085
-0.025,-0.085
-0.035,-0.085
0.015,-0.085
0.365,-0.085
0.865,-0.085
0.565,-0.245
-0.075,-0.515
-0.185,-0.265
-0.155,0.025
-0.135,-0.025
-0.095,-0.035
-0.055,-0.035
-0.055,-0.045
-0.055,-0.055
-0.055,-0.085
-0.045,-0.085
-0.045,-0.075
-0.055,-0.085
-0.045,-0.085
-0.045,-0.085
-0.045,-0.085
-0.055,-0.085
-0.045,-0.085
-0.045,-0.085
-0.045,-0.095
-0.045,-0.085
-0.045,-0.085
-0.045,-0.085
-0.045,-0.075
-0.045,-0.075
-0.045,-0.085
-0.035,-0.075
-0.035,-0.075
-0.035,-0.065
-0.015,-0.065
0.005,-0.065
0.005,-0.065
0.015,-0.075
0.035,-0.075
0.045,-0.075
0.045,-0.085
0.025,-0.095
0.015,-0.105
0.005,-0.105
-0.015,-0.105
-0.025,-0.105
-0.035,-0.105
-0.035,-0.095
-0.045,-0.105
-0.045,-0.095
-0.045,-0.095
-0.035,-0.095
-0.035,-0.095
-0.045,-0.095
-0.045,-0.095
-0.045,-0.095
-0.055,-0.095
-0.045,-0.095
-0.045,-0.095
-0.045,-0.095
-0.045,-0.095
-0.045,-0.095
-0.045,-0.095
-0.035,-0.095
-0.035,-0.105
-0.025,-0.105
-0.005,-0.105
-0.015,-0.095
-0.025,-0.095
-0.025,-0.095
-0.035,-0.095
-0.035,-0.085
-0.045,-0.095
-0.055,-0.095
-0.055,-0.095
-0.045,-0.085
-0.055,-0.085
-0.045,-0.085
-0.045,-0.085
-0.045,-0.085
0.045,-0.095
0.505,-0.085
0.875,-0.105
0.335,-0.355
-0.185,-0.525
-0.215,-0.185
-0.175,0.005
-0.155,-0.015
-0.115,-0.035
-0.085,-0.045
-0.075,-0.045
-0.075,-0.065
-0.075,-0.075
-0.075,-0.085
-0.075,-0.095
-0.065,-0.085
-0.085,-0.095
-0.075,-0.085
-0.075,-0.085
-0.075,-0.095
-0.075,-0.095
-0.075,-0.085
-0.075,-0.095
-0.085,-0.085
-0.075,-0.085
-0.065,-0.085
-0.075,-0.095
-0.065,-0.085
-0.075,-0.075
-0.065,-0.085
-0.055,-0.075
-0.055,-0.075
-0.035,-0.075
-0.035,-0.065
-0.025,-0.075
0.005,-0.075
0.015,-0.075
0.015,-0.085
0.025,-0.085
0.005,-0.095
-0.005,-0.105
-0.035,-0.105
-0.055,-0.105
-0.045,-0.095
-0.045,-0.095
-0.065,-0.095
-0.065,-0.105
-0.065,-0.085
-0.065,-0.085
-0.075,-0.085
-0.075,-0.095
-0.065,-0.085
-0.065,-0.085
-0.075,-0.085
-0.075,-0.095
-0.075,-0.085
-0.075,-0.085
-0.075,-0.085
-0.075,-0.095
-0.075,-0.095
-0.065,-0.085
-0.075,-0.085
-0.065,-0.085
-0.065,-0.105
-0.055,-0.105
-0.035,-0.105
-0.045,-0.105
-0.045,-0.095
-0.065,-0.085
-0.055,-0.095
-0.065,-0.085
-0.065,-0.095
-0.075,-0.095
-0.075,-0.085
-0.075,-0.085
-0.065,-0.085
-0.065,-0.075
-0.045,-0.085
-0.065,-0.095
0.075,-0.095
0.585,-0.085
0.825,-0.135
0.215,-0.405
-0.215,-0.455
-0.215,-0.085
-0.195,0.015
-0.165,-0.035
-0.115,-0.035
-0.095,-0.035
-0.085,-0.045
-0.095,-0.065
-0.075,-0.085
-0.085,-0.085
-0.085,-0.085
-0.085,-0.095
-0.085,-0.085
-0.085,-0.085
-0.085,-0.085
-0.085,-0.095
-0.075,-0.095
-0.075,-0.085
-0.085,-0.085
-0.075,-0.095
-0.075,-0.085
-0.075,-0.085
-0.075,-0.085
-0.065,-0.095
-0.065,-0.075
-0.065,-0.075
-0.045,-0.065
-0.045,-0.075
-0.025,-0.075
-0.015,-0.075
0.005,-0.065
0.015,-0.085
0.035,-0.075
0.035,-0.085
0.005,-0.095
-0.005,-0.105
-0.025,-0.095
-0.035,-0.095
-0.055,-0.105
-0.055,-0.105
-0.055,-0.095
-0.065,-0.085
-0.075,-0.095
-0.065,-0.085
-0.065,-0.085
-0.065,-0.085
-0.075,-0.095
-0.065,-0.085
-0.065,-0.085
-0.065,-0.085
-0.075,-0.085
-0.075,-0.085
-0.065,-0.085
-0.075,-0.085
-0.075,-0.085
-0.065,-0.085
-0.055,-0.085
-0.065,-0.085
-0.055,-0.095
-0.055,-0.105
-0.025,-0.095
-0.045,-0.085
-0.045,-0.095
-0.045,-0.095
-0.055,-0.085
-0.065,-0.075
-0.065,-0.075
-0.075,-0.095
-0.075,-0.095
-0.075,-0.075
-0.075,-0.085
-0.075,-0.085
-0.055,-0.075
-0.065,-0.085
-0.005,-0.095
0.375,-0.095
0.825,-0.095
0.485,-0.285
-0.155,-0.495
-0.245,-0.225
-0.205,0.025
-0.185,-0.015
-0.155,-0.035
-0.115,-0.045
-0.095,-0.045
-0.095,-0.055
-0.095,-0.065
-0.095,-0.085
-0.085,-0.095
-0.085,-0.085
-0.085,-0.085
-0.085,-0.095
-0.085,-0.085
-0.085,-0.095
-0.095,-0.095
-0.085,-0.095
-0.075,-0.085
-0.075,-0.085
-0.075,-0.085
-0.075,-0.095
-0.075,-0.085
-0.075,-0.095
-0.075,-0.075
-0.055,-0.085
-0.055,-0.075
-0.035,-0.075
-0.035,-0.075
-0.015,-0.075
-0.005,-0.075
0.015,-0.075
0.025,-0.075
0.035,-0.085
0.015,-0.095
0.005,-0.095
-0.015,-0.105
-0.035,-0.105
-0.045,-0.105
-0.065,-0.095
-0.065,-0.095
-0.075,-0.095
-0.065,-0.095
-0.075,-0.095
-0.075,-0.095
-0.075,-0.085
-0.075,-0.075
-0.075,-0.085
-0.075,-0.085
-0.075,-0.095
-0.065,-0.085
-0.075,-0.085
-0.075,-0.085
-0.075,-0.085
-0.075,-0.085
-0.075,-0.085
-0.075,-0.085
-0.075,-0.085
-0.065,-0.095
-0.065,-0.105
-0.055,-0.115
-0.045,-0.105
-0.055,-0.095
-0.055,-0.085
-0.065,-0.095
-0.065,-0.095
-0.065,-0.085
-0.075,-0.095
-0.075,-0.095
-0.085,-0.095
-0.085,-0.085
-0.085,-0.085
-0.075,-0.085
-0.065,-0.095
-0.065,-0.095
0.085,-0.095
0.565,-0.095
0.775,-0.155
0.195,-0.395
-0.225,-0.425
-0.215,-0.075
-0.195,0.005
-0.175,-0.035
-0.135,-0.055
-0.105,-0.035
-0.105,-0.045
-0.105,-0.085
-0.095,-0.085
-0.095,-0.095
-0.095,-0.095
-0.095,-0.095
-0.095,-0.095
-0.095,-0.095
-0.095,-0.095
-0.095,-0.095
-0.085,-0.095
-0.095,-0.095
-0.095,-0.095
-0.085,-0.095
-0.085,-0.095
-0.095,-0.095
-0.085,-0.095
-0.085,-0.085
-0.085,-0.095
-0.065,-0.085
-0.065,-0.085
-0.045,-0.085
-0.035,-0.085
-0.025,-0.085
-0.005,-0.095
0.015,-0.085
0.015,-0.105
0.005,-0.105
-0.005,-0.115
-0.025,-0.125
-0.045,-0.105
-0.055,-0.115
-0.075,-0.115
-0.085,-0.105
-0.085,-0.115
-0.095,-0.105
-0.095,-0.095
-0.085,-0.095
-0.085,-0.105
-0.085,-0.105
-0.095,-0.105
-0.085,-0.105
-0.095,-0.095
-0.095,-0.095
-0.085,-0.105
-0.095,-0.095
-0.095,-0.105
-0.095,-0.095
-0.095,-0.095
-0.085,-0.095
-0.085,-0.105
-0.085,-0.115
-0.065,-0.125
-0.055,-0.115
-0.065,-0.105
-0.065,-0.105
-0.075,-0.105
-0.075,-0.105
-0.085,-0.095
-0.085,-0.105
-0.085,-0.105
-0.095,-0.105
-0.105,-0.095
-0.095,-0.085
-0.085,-0.095
-0.085,-0.095
-0.085,-0.105
-0.045,-0.105
0.285,-0.105
0.715,-0.105
0.435,-0.265
-0.165,-0.485
-0.225,-0.255
-0.215,-0.015
-0.195,-0.055
-0.185,-0.055
-0.145,-0.065
-0.105,-0.055
-0.115,-0.055
-0.105,-0.085
-0.115,-0.105
-0.105,-0.095
-0.115,-0.095
-0.105,-0.095
-0.105,-0.095
-0.105,-0.105
-0.105,-0.105
-0.095,-0.095
-0.095,-0.105
-0.095,-0.105
-0.095,-0.105
-0.095,-0.095
-0.095,-0.095
-0.085,-0.105
-0.095,-0.095
-0.095,-0.095
-0.085,-0.095
-0.075,-0.095
-0.075,-0.085
-0.065,-0.085
-0.055,-0.095
-0.035,-0.095
-0.025,-0.095
-0.005,-0.085
-0.015,-0.095
-0.005,-0.105
-0.035,-0.115
-0.055,-0.125
-0.065,-0.135
-0.075,-0.125
-0.085,-0.115
-0.095,-0.115
-0.095,-0.115
-0.105,-0.115
-0.105,-0.105
-0.095,-0.105
-0.095,-0.105
-0.095,-0.105
-0.095,-0.105
-0.105,-0.105
-0.105,-0.105
-0.095,-0.105
-0.095,-0.105
-0.105,-0.105
-0.105,-0.105
-0.105,-0.105
-0.105,-0.105
-0.105,-0.105
-0.095,-0.105
-0.085,-0.115
-0.085,-0.125
-0.075,-0.115
-0.075,-0.115
-0.085,-0.115
-0.095,-0.105
-0.095,-0.105
-0.095,-0.095
-0.095,-0.105
-0.105,-0.105
-0.105,-0.095
-0.105,-0.095
-0.095,-0.095
-0.085,-0.105
-0.085,-0.095
-0.095,-0.105
-0.015,-0.095
0.395,-0.095
0.715,-0.115
0.265,-0.335
-0.205,-0.485
-0.235,-0.175
-0.205,-0.025
-0.185,-0.045
-0.165,-0.065
-0.125,-0.055
-0.115,-0.055
-0.105,-0.075
-0.105,-0.085
-0.115,-0.095
-0.105,-0.095
-0.105,-0.105
-0.105,-0.095
-0.105,-0.095
-0.105,-0.095
-0.105,-0.105
-0.095,-0.095
-0.115,-0.095
-0.105,-0.095
-0.105,-0.095
-0.105,-0.095
-0.095,-0.095
-0.105,-0.095
-0.105,-0.095
-0.095,-0.085
-0.095,-0.085
-0.095,-0.085
-0.085,-0.085
-0.065,-0.085
-0.055,-0.075
-0.045,-0.075
-0.035,-0.075
-0.005,-0.075
-0.005,-0.085
-0.015,-0.095
-0.025,-0.115
-0.035,-0.115
-0.055,-0.125
-0.065,-0.125
-0.075,-0.125
-0.075,-0.105
-0.085,-0.105
-0.085,-0.105
-0.095,-0.105
-0.095,-0.105
-0.095,-0.095
-0.085,-0.095
-0.095,-0.105
-0.085,-0.095
-0.095,-0.105
-0.095,-0.095
-0.085,-0.095
-0.095,-0.095
-0.095,-0.095
-0.095,-0.095
-0.095,-0.095
-0.085,-0.105
-0.085,-0.105
-0.075,-0.105
-0.055,-0.115
-0.065,-0.095
-0.065,-0.105
-0.065,-0.095
-0.085,-0.105
-0.075,-0.095
-0.075,-0.085
-0.095,-0.095
-0.095,-0.105
-0.085,-0.085
-0.095,-0.085
-0.085,-0.085
-0.085,-0.085
-0.075,-0.085
-0.065,-0.095
0.175,-0.095
0.705,-0.075
0.715,-0.175
0.075,-0.475
-0.245,-0.385
-0.225,-0.015
-0.185,-0.015
-0.165,-0.025
-0.125,-0.045
-0.105,-0.035
-0.105,-0.045
-0.095,-0.065
-0.105,-0.075
-0.105,-0.085
-0.095,-0.075
-0.105,-0.075
-0.105,-0.085
-0.095,-0.095
-0.095,-0.085
-0.095,-0.075
-0.095,-0.085
-0.095,-0.085
-0.085,-0.085
-0.095,-0.085
-0.095,-0.075
-0.105,-0.085
-0.095,-0.075
-0.085,-0.075
-0.085,-0.065
-0.075,-0.065
-0.055,-0.055
-0.055,-0.065
-0.045,-0.065
-0.025,-0.055
-0.015,-0.055
0.005,-0.055
0.005,-0.065
0.005,-0.075
0.005,-0.085
-0.025,-0.085
-0.035,-0.095
-0.045,-0.095
-0.055,-0.085
-0.065,-0.085
-0.065,-0.085
-0.065,-0.085
-0.065,-0.085
-0.075,-0.075
-0.075,-0.075
-0.075,-0.075
-0.075,-0.075
-0.075,-0.075
-0.075,-0.075
-0.075,-0.075
-0.065,-0.065
-0.075,-0.065
-0.065,-0.065
-0.065,-0.075
-0.065,-0.065
-0.065,-0.075
-0.055,-0.075
-0.045,-0.085
-0.035,-0.075
-0.045,-0.075
-0.055,-0.065
-0.055,-0.075
-0.055,-0.065
-0.065,-0.055
-0.075,-0.075
-0.075,-0.075
-0.075,-0.055
-0.065,-0.055
-0.075,-0.055
-0.055,-0.055
-0.055,-0.065
-0.055,-0.065
0.065,-0.065
0.555,-0.055
0.815,-0.095
0.265,-0.355
-0.205,-0.425
-0.215,-0.095
-0.175,0.045
-0.165,-0.005
-0.115,-0.015
-0.085,-0.015
-0.075,-0.025
-0.085,-0.035
-0.085,-0.045
-0.085,-0.055
-0.075,-0.055
-0.075,-0.055
-0.075,-0.055
-0.075,-0.055
-0.075,-0.055
-0.085,-0.055
-0.085,-0.065
-0.075,-0.065
-0.075,-0.055
-0.075,-0.055
-0.075,-0.055
-0.065,-0.065
-0.065,-0.055
-0.065,-0.055
-0.065,-0.055
-0.065,-0.055
-0.055,-0.045
-0.035,-0.045
-0.035,-0.045
-0.015,-0.045
0.005,-0.045
0.015,-0.045
0.025,-0.045
0.025,-0.055
0.005,-0.055
-0.005,-0.065
-0.015,-0.075
-0.035,-0.075
-0.045,-0.075
-0.055,-0.065
-0.055,-0.065
-0.065,-0.065
-0.055,-0.055
-0.055,-0.055
-0.065,-0.065
-0.065,-0.065
-0.065,-0.055
-0.065,-0.055
-0.065,-0.065
-0.065,-0.055
-0.075,-0.055
-0.065,-0.055
-0.075,-0.055
-0.065,-0.065
-0.065,-0.055
-0.055,-0.055
-0.055,-0.065
-0.045,-0.065
-0.035,-0.075
-0.035,-0.075
-0.045,-0.055
-0.045,-0.055
-0.045,-0.055
-0.055,-0.065
-0.055,-0.045
-0.065,-0.065
-0.065,-0.055
-0.065,-0.055
-0.065,-0.045
-0.075,-0.045
-0.055,-0.055
-0.055,-0.045
-0.055,-0.055
0.065,-0.055
0.535,-0.055
0.865,-0.075
0.305,-0.335
-0.215,-0.455
-0.215,-0.105
-0.185,0.065
-0.155,-0.005
-0.125,-0.005
-0.085,-0.015
-0.085,-0.005
-0.085,-0.025
-0.075,-0.045
-0.075,-0.055
-0.085,-0.045
-0.085,-0.045
-0.085,-0.055
-0.075,-0.055
-0.085,-0.055
-0.075,-0.055
-0.075,-0.055
-0.065,-0.055
-0.075,-0.055
-0.065,-0.055
-0.065,-0.055
-0.065,-0.055
-0.065,-0.055
-0.065,-0.045
-0.055,-0.055
-0.035,-0.045
-0.045,-0.045
-0.035,-0.045
-0.015,-0.045
-0.005,-0.045
0.015,-0.035
0.025,-0.045
0.035,-0.055
0.045,-0.055
0.015,-0.065
0.005,-0.075
-0.015,-0.075
-0.025,-0.075
-0.045,-0.065
-0.055,-0.065
-0.055,-0.065
-0.055,-0.065
-0.055,-0.055
-0.055,-0.055
-0.065,-0.055
-0.065,-0.055
-0.055,-0.045
-0.065,-0.055
-0.065,-0.065
-0.055,-0.055
-0.055,-0.055
-0.065,-0.055
-0.055,-0.055
-0.055,-0.045
-0.055,-0.055
-0.065,-0.055
-0.055,-0.065
-0.045,-0.065
-0.035,-0.075
-0.015,-0.075
-0.035,-0.075
-0.035,-0.065
-0.045,-0.065
-0.045,-0.065
-0.045,-0.055
-0.045,-0.065
-0.055,-0.075
-0.055,-0.065
-0.055,-0.055
-0.055,-0.055
-0.045,-0.055
-0.045,-0.055
-0.045,-0.065
0.045,-0.065
0.415,-0.065
0.835,-0.075
0.475,-0.275
-0.145,-0.465
-0.215,-0.175
-0.175,0.065
-0.155,-0.015
-0.125,-0.015
-0.085,-0.015
-0.065,-0.015
-0.065,-0.035
-0.065,-0.055
-0.065,-0.065
-0.065,-0.065
-0.065,-0.065
-0.055,-0.065
-0.065,-0.065
-0.065,-0.065
-0.065,-0.075
-0.055,-0.065
-0.065,-0.065
-0.065,-0.065
-0.065,-0.065
-0.045,-0.065
-0.055,-0.065
-0.055,-0.065
-0.045,-0.065
-0.055,-0.065
-0.045,-0.055
-0.035,-0.055
-0.015,-0.065
-0.005,-0.055
0.005,-0.055
0.015,-0.055
0.045,-0.065
0.055,-0.065
0.045,-0.065
0.035,-0.075
0.015,-0.085
0.015,-0.085
-0.015,-0.085
-0.025,-0.085
-0.035,-0.095
-0.045,-0.085
-0.045,-0.085
-0.055,-0.075
-0.055,-0.075
-0.045,-0.075
-0.055,-0.085
-0.055,-0.075
-0.055,-0.085
-0.055,-0.075
-0.055,-0.075
-0.055,-0.075
-0.055,-0.085
-0.045,-0.085
-0.055,-0.075
-0.055,-0.075
-0.045,-0.085
-0.055,-0.085
-0.035,-0.085
-0.035,-0.095
-0.025,-0.095
-0.015,-0.085
-0.035,-0.085
-0.035,-0.075
-0.045,-0.085
-0.045,-0.085
-0.045,-0.065
-0.055,-0.095
-0.055,-0.085
-0.055,-0.075
-0.055,-0.075
-0.055,-0.075
-0.045,-0.065
-0.045,-0.085
0.015,-0.085
0.395,-0.095
0.835,-0.095
0.475,-0.295
-0.155,-0.495
-0.205,-0.185
-0.175,0.035
-0.155,-0.025
-0.125,-0.035
-0.085,-0.045
-0.075,-0.045
-0.065,-0.055
-0.065,-0.085
-0.065,-0.085
-0.065,-0.085
-0.065,-0.085
-0.065,-0.095
-0.065,-0.095
-0.055,-0.105
-0.055,-0.105
-0.055,-0.095
-0.065,-0.105
-0.055,-0.105
-0.055,-0.085
-0.055,-0.095
-0.055,-0.095
-0.055,-0.095
-0.035,-0.085
-0.045,-0.085
-0.035,-0.085
-0.025,-0.085
-0.015,-0.075
-0.005,-0.075
0.015,-0.085
0.025,-0.085
0.055,-0.085
0.055,-0.085
0.055,-0.095
0.045,-0.105
0.025,-0.105
0.005,-0.105
-0.015,-0.115
-0.025,-0.105
-0.035,-0.095
-0.035,-0.095
-0.045,-0.095
-0.045,-0.095
-0.045,-0.085
-0.045,-0.085
-0.045,-0.085
-0.045,-0.085
-0.045,-0.085
-0.045,-0.085
-0.055,-0.085
-0.045,-0.095
-0.045,-0.085
-0.045,-0.085
-0.045,-0.085
-0.045,-0.095
-0.045,-0.085
-0.045,-0.085
-0.035,-0.095
-0.025,-0.105
-0.005,-0.105
-0.025,-0.095
-0.025,-0.095
-0.025,-0.105
-0.025,-0.095
-0.035,-0.085
-0.035,-0.085
-0.055,-0.105
-0.045,-0.095
-0.045,-0.075
-0.055,-0.075
-0.035,-0.085
-0.025,-0.085
-0.035,-0.085
-0.025,-0.095
0.165,-0.105
0.645,-0.085
0.685,-0.175
0.055,-0.415
-0.185,-0.365
-0.155,-0.035
-0.135,-0.035
-0.135,-0.035
-0.105,-0.065
-0.065,-0.045
-0.065,-0.045
-0.065,-0.065
-0.055,-0.075
-0.055,-0.085
-0.055,-0.095
-0.055,-0.095
-0.055,-0.085
-0.055,-0.085
-0.045,-0.085
-0.045,-0.085
-0.045,-0.095
-0.035,-0.095
-0.045,-0.095
-0.045,-0.085
-0.045,-0.085
-0.035,-0.085
-0.035,-0.085
-0.035,-0.085
-0.025,-0.085
-0.015,-0.075
-0.015,-0.075
-0.005,-0.065
0.005,-0.065
0.025,-0.065
0.045,-0.075
0.055,-0.065
0.055,-0.075
0.055,-0.095
0.035,-0.095
0.015,-0.105
0.005,-0.115
-0.015,-0.105
-0.025,-0.115
-0.025,-0.095
-0.035,-0.095
-0.025,-0.095
-0.035,-0.095
-0.035,-0.085
-0.035,-0.095
-0.045,-0.085
-0.035,-0.095
-0.035,-0.085
-0.045,-0.095
-0.035,-0.085
-0.035,-0.085
-0.045,-0.085
-0.035,-0.085
-0.045,-0.085
-0.045,-0.085
-0.045,-0.085
-0.025,-0.085
-0.025,-0.095
-0.015,-0.105
-0.015,-0.095
-0.015,-0.095
-0.015,-0.095
-0.025,-0.085
-0.025,-0.095
-0.035,-0.085
-0.035,-0.085
-0.035,-0.075
-0.035,-0.075
-0.045,-0.085
-0.045,-0.075
-0.035,-0.075
-0.025,-0.065
-0.025,-0.075
0.025,-0.085
0.395,-0.075
0.765,-0.085
0.345,-0.285
-0.155,-0.445
-0.175,-0.145
-0.145,-0.015
-0.135,-0.035
-0.105,-0.045
-0.065,-0.035
-0.045,-0.025
-0.055,-0.055
-0.055,-0.075
-0.045,-0.075
-0.045,-0.075
-0.045,-0.085
-0.045,-0.085
-0.045,-0.085
-0.055,-0.085
-0.045,-0.085
-0.045,-0.085
-0.045,-0.085
-0.045,-0.085
-0.045,-0.085
-0.035,-0.075
-0.045,-0.085
-0.035,-0.085
-0.045,-0.085
-0.035,-0.075
-0.025,-0.065
-0.025,-0.065
-0.015,-0.075
-0.005,-0.065
0.005,-0.055
0.015,-0.065
0.035,-0.065
0.055,-0.075
0.045,-0.075
0.035,-0.095
0.025,-0.105
0.015,-0.105
-0.005,-0.105
-0.025,-0.105
-0.035,-0.105
-0.035,-0.095
-0.035,-0.095
-0.035,-0.095
-0.045,-0.095
-0.035,-0.095
-0.035,-0.085
-0.045,-0.095
-0.045,-0.095
-0.035,-0.085
-0.035,-0.085
-0.045,-0.095
-0.035,-0.095
-0.045,-0.095
-0.045,-0.085
-0.045,-0.095
-0.035,-0.095
-0.035,-0.085
-0.035,-0.095
-0.025,-0.105
-0.015,-0.105
-0.005,-0.105
-0.015,-0.105
-0.025,-0.095
-0.025,-0.105
-0.025,-0.095
-0.035,-0.085
-0.045,-0.095
-0.055,-0.095
-0.045,-0.085
-0.055,-0.075
-0.055,-0.075
-0.045,-0.085
-0.045,-0.085
-0.045,-0.085
0.015,-0.085
0.365,-0.085
0.805,-0.085
0.515,-0.265
-0.115,-0.485
-0.195,-0.255
-0.175,0.015
-0.155,-0.035
-0.125,-0.045
-0.085,-0.045
-0.065,-0.035
-0.075,-0.045
-0.075,-0.075
-0.075,-0.085
-0.075,-0.085
-0.075,-0.075
-0.075,-0.085
-0.075,-0.085
-0.065,-0.085
-0.075,-0.085
-0.075,-0.085
-0.075,-0.085
-0.075,-0.085
-0.065,-0.075
-0.075,-0.075
-0.075,-0.085
-0.065,-0.085
-0.065,-0.075
-0.065,-0.075
-0.055,-0.075
-0.065,-0.075
-0.045,-0.065
-0.035,-0.065
-0.035,-0.065
-0.005,-0.065
-0.005,-0.065
0.015,-0.065
0.025,-0.075
0.015,-0.085
0.005,-0.095
-0.015,-0.095
-0.025,-0.105
-0.025,-0.105
-0.045,-0.105
-0.055,-0.105
-0.065,-0.105
-0.065,-0.085
-0.065,-0.085
-0.065,-0.085
-0.065,-0.095
-0.055,-0.095
-0.065,-0.085
-0.075,-0.095
-0.065,-0.095
-0.075,-0.085
-0.075,-0.085
-0.075,-0.095
-0.075,-0.085
-0.075,-0.085
-0.065,-0.085
-0.065,-0.095
-0.055,-0.105
-0.035,-0.095
-0.055,-0.095
-0.055,-0.085
-0.065,-0.095
-0.065,-0.095
-0.075,-0.075
-0.075,-0.085
-0.075,-0.085
-0.075,-0.075
-0.075,-0.075
-0.085,-0.075
-0.075,-0.075
-0.065,-0.075
-0.075,-0.075
0.005,-0.085
0.435,-0.085
0.825,-0.095
0.325,-0.315
-0.215,-0.475
-0.235,-0.155
-0.195,0.015
-0.175,-0.015
-0.145,-0.035
-0.105,-0.035
-0.095,-0.045
-0.105,-0.065
-0.105,-0.065
-0.095,-0.075
-0.095,-0.075
-0.095,-0.075
-0.105,-0.095
-0.095,-0.085
-0.095,-0.085
-0.095,-0.085
-0.095,-0.075
-0.095,-0.085
-0.085,-0.085
-0.095,-0.075
-0.095,-0.075
-0.085,-0.075
-0.085,-0.075
-0.085,-0.075
-0.085,-0.075
-0.075,-0.075
-0.065,-0.065
-0.065,-0.065
-0.055,-0.065
-0.035,-0.065
-0.025,-0.065
-0.015,-0.055
-0.005,-0.065
0.005,-0.075
-0.005,-0.085
-0.015,-0.085
-0.035,-0.095
-0.055,-0.095
-0.055,-0.095
-0.065,-0.085
-0.075,-0.085
-0.075,-0.095
-0.065,-0.085
-0.075,-0.075
-0.085,-0.085
-0.085,-0.085
-0.085,-0.075
-0.085,-0.075
-0.075,-0.075
-0.085,-0.085
-0.075,-0.075
-0.085,-0.075
-0.095,-0.075
-0.085,-0.075
-0.085,-0.075
-0.085,-0.065
-0.075,-0.085
-0.075,-0.085
-0.055,-0.095
-0.045,-0.085
-0.055,-0.075
-0.065,-0.075
-0.065,-0.075
-0.065,-0.075
-0.075,-0.065
-0.075,-0.065
-0.075,-0.085
-0.085,-0.075
-0.085,-0.055
-0.085,-0.065
-0.075,-0.065
-0.075,-0.065
-0.085,-0.065
-0.025,-0.075
0.385,-0.075
0.835,-0.075
0.415,-0.285
-0.195,-0.475
-0.245,-0.175
-0.215,0.045
-0.185,-0.005
-0.155,-0.025
-0.105,-0.025
-0.105,-0.025
-0.105,-0.045
-0.105,-0.075
-0.105,-0.075
-0.105,-0.075
-0.105,-0.075
-0.105,-0.085
-0.095,-0.085
-0.095,-0.075
-0.095,-0.075
-0.095,-0.085
-0.095,-0.085
-0.095,-0.075
-0.105,-0.075
-0.095,-0.075
-0.085,-0.075
-0.095,-0.075
-0.085,-0.075
-0.095,-0.075
-0.075,-0.065
-0.075,-0.065
-0.055,-0.055
-0.045,-0.065
-0.025,-0.065
-0.025,-0.065
0.005,-0.055
0.015,-0.065
0.015,-0.075
-0.005,-0.085
-0.015,-0.095
-0.035,-0.095
-0.055,-0.095
-0.065,-0.095
-0.065,-0.085
-0.065,-0.085
-0.065,-0.075
-0.075,-0.085
-0.095,-0.085
-0.075,-0.075
-0.085,-0.085
-0.075,-0.085
-0.085,-0.085
-0.085,-0.085
-0.075,-0.075
-0.075,-0.075
-0.085,-0.085
-0.085,-0.095
-0.075,-0.085
-0.085,-0.075
-0.085,-0.085
-0.075,-0.085
-0.065,-0.095
-0.055,-0.095
-0.045,-0.095
-0.055,-0.095
-0.055,-0.085
-0.065,-0.095
-0.065,-0.085
-0.075,-0.075
-0.085,-0.085
-0.085,-0.095
-0.085,-0.085
-0.085,-0.085
-0.075,-0.075
-0.075,-0.085
-0.075,-0.085
-0.065,-0.085
0.025,-0.085
0.515,-0.085
0.795,-0.125
0.195,-0.385
-0.235,-0.455
-0.225,-0.065
-0.205,-0.005
-0.175,-0.025
-0.125,-0.045
-0.105,-0.035
-0.105,-0.055
-0.095,-0.065
-0.085,-0.085
-0.095,-0.095
-0.095,-0.095
-0.095,-0.095
-0.095,-0.085
-0.095,-0.095
-0.095,-0.095
-0.095,-0.085
-0.085,-0.085
-0.085,-0.095
-0.095,-0.095
-0.085,-0.105
-0.085,-0.095
-0.085,-0.095
-0.085,-0.085
-0.085,-0.085
-0.075,-0.085
-0.065,-0.085
-0.055,-0.085
-0.055,-0.085
-0.045,-0.085
-0.035,-0.085
-0.015,-0.095
0.005,-0.085
0.015,-0.095
0.005,-0.095
-0.015,-0.105
-0.025,-0.115
-0.045,-0.115
-0.055,-0.105
-0.065,-0.115
-0.085,-0.115
-0.075,-0.115
-0.075,-0.105
-0.095,-0.105
-0.085,-0.105
-0.095,-0.095
-0.095,-0.095
-0.085,-0.095
-0.085,-0.095
-0.085,-0.095
-0.095,-0.105
-0.085,-0.105
-0.085,-0.105
-0.085,-0.105
-0.085,-0.105
-0.085,-0.105
-0.085,-0.105
-0.075,-0.105
-0.075,-0.125
-0.055,-0.125
-0.055,-0.115
-0.065,-0.105
-0.065,-0.105
-0.075,-0.105
-0.075,-0.105
-0.075,-0.095
-0.085,-0.115
-0.085,-0.115
-0.085,-0.095
-0.095,-0.095
-0.085,-0.095
-0.085,-0.095
-0.075,-0.105
-0.065,-0.105
0.055,-0.105
0.525,-0.105
0.785,-0.145
0.285,-0.375
-0.215,-0.465
-0.235,-0.135
-0.205,-0.005
-0.185,-0.045
-0.145,-0.055
-0.115,-0.055
-0.105,-0.055
-0.105,-0.075
-0.095,-0.095
-0.105,-0.105
-0.095,-0.105
-0.095,-0.105
-0.105,-0.105
-0.105,-0.115
-0.095,-0.105
-0.105,-0.105
-0.095,-0.105
-0.095,-0.105
-0.095,-0.115
-0.085,-0.115
-0.095,-0.105
-0.085,-0.115
-0.085,-0.105
-0.085,-0.105
-0.075,-0.105
-0.075,-0.105
-0.075,-0.105
-0.045,-0.095
-0.035,-0.095
-0.025,-0.095
-0.015,-0.105
0.005,-0.105
0.005,-0.105
-0.005,-0.115
-0.015,-0.125
-0.025,-0.125
-0.055,-0.125
-0.075,-0.125
-0.085,-0.125
-0.085,-0.125
-0.095,-0.105
-0.095,-0.115
-0.095,-0.115
-0.085,-0.105
-0.095,-0.115
-0.105,-0.115
-0.105,-0.115
-0.105,-0.115
-0.105,-0.115
-0.105,-0.105
-0.105,-0.115
-0.105,-0.115
-0.105,-0.095
-0.105,-0.105
-0.095,-0.105
-0.095,-0.105
-0.095,-0.115
-0.095,-0.115
-0.075,-0.125
-0.085,-0.105
-0.085,-0.105
-0.095,-0.105
-0.085,-0.115
-0.095,-0.095
-0.105,-0.115
-0.105,-0.105
-0.115,-0.105
-0.105,-0.095
-0.105,-0.095
-0.105,-0.095
-0.095,-0.095
-0.095,-0.105
-0.065,-0.105
0.225,-0.115
0.665,-0.105
0.485,-0.235
-0.145,-0.455
-0.245,-0.275
-0.215,-0.025
-0.215,-0.055
-0.185,-0.055
-0.145,-0.055
-0.115,-0.055
-0.115,-0.065
-0.125,-0.085
-0.115,-0.095
-0.125,-0.105
-0.115,-0.105
-0.115,-0.105
-0.125,-0.105
-0.115,-0.105
-0.105,-0.095
-0.115,-0.095
-0.115,-0.095
-0.115,-0.105
-0.105,-0.105
-0.105,-0.095
-0.105,-0.085
-0.105,-0.095
-0.095,-0.085
-0.105,-0.095
-0.105,-0.095
-0.085,-0.095
-0.085,-0.075
-0.065,-0.085
-0.055,-0.085
-0.045,-0.085
-0.025,-0.075
-0.015,-0.095
-0.015,-0.085
-0.025,-0.105
-0.045,-0.105
-0.065,-0.115
-0.085,-0.115
-0.095,-0.125
-0.085,-0.105
-0.095,-0.105
-0.115,-0.105
-0.115,-0.115
-0.105,-0.095
-0.105,-0.095
-0.105,-0.105
-0.105,-0.115
-0.115,-0.095
-0.105,-0.095
-0.105,-0.095
-0.115,-0.095
-0.115,-0.105
-0.115,-0.105
-0.115,-0.095
-0.105,-0.105
-0.095,-0.105
-0.105,-0.105
-0.095,-0.105
-0.095,-0.115
-0.075,-0.115
-0.085,-0.105
-0.085,-0.105
-0.085,-0.105
-0.085,-0.105
-0.095,-0.105
-0.105,-0.095
-0.105,-0.105
-0.105,-0.095
-0.115,-0.095
-0.105,-0.095
-0.105,-0.095
-0.095,-0.095
-0.095,-0.095
-0.095,-0.095
0.105,-0.105
0.625,-0.085
0.605,-0.175
-0.035,-0.455
-0.255,-0.365
-0.215,-0.045
-0.205,-0.045
-0.195,-0.035
-0.145,-0.065
-0.115,-0.055
-0.115,-0.055
-0.115,-0.085
-0.115,-0.095
-0.105,-0.095
-0.115,-0.105
-0.115,-0.095
-0.105,-0.095
-0.105,-0.095
-0.105,-0.095
-0.105,-0.095
-0.105,-0.095
-0.095,-0.095
-0.105,-0.095
-0.115,-0.085
-0.105,-0.085
-0.095,-0.085
-0.105,-0.085
-0.105,-0.085
-0.095,-0.085
-0.085,-0.075
-0.075,-0.075
-0.075,-0.065
-0.055,-0.065
-0.045,-0.065
-0.025,-0.065
-0.005,-0.065
0.005,-0.075
0.005,-0.095
-0.005,-0.105
-0.025,-0.105
-0.045,-0.115
-0.055,-0.115
-0.065,-0.105
-0.075,-0.105
-0.075,-0.115
-0.065,-0.105
-0.075,-0.105
-0.075,-0.095
-0.075,-0.105
-0.075,-0.105
-0.075,-0.095
-0.085,-0.095
-0.075,-0.105
-0.075,-0.105
-0.075,-0.095
-0.085,-0.085
-0.075,-0.095
-0.075,-0.095
-0.075,-0.095
-0.075,-0.085
-0.065,-0.105
-0.055,-0.105
-0.045,-0.105
-0.055,-0.095
-0.055,-0.095
-0.055,-0.095
-0.065,-0.095
-0.075,-0.075
-0.065,-0.095
-0.075,-0.095
-0.075,-0.085
-0.075,-0.075
-0.075,-0.085
-0.075,-0.075
-0.075,-0.075
-0.065,-0.085
-0.025,-0.085
0.345,-0.085
0.835,-0.065
0.515,-0.265
-0.125,-0.495
-0.225,-0.255
-0.195,0.035
-0.165,-0.015
-0.145,-0.035
-0.095,-0.035
-0.095,-0.025
-0.095,-0.045
-0.085,-0.075
-0.085,-0.075
-0.085,-0.075
-0.095,-0.085
-0.085,-0.085
-0.085,-0.075
-0.085,-0.075
-0.085,-0.075
-0.085,-0.085
-0.075,-0.085
-0.085,-0.075
-0.085,-0.075
-0.085,-0.075
-0.075,-0.075
-0.075,-0.075
-0.075,-0.075
-0.075,-0.075
-0.065,-0.075
-0.065,-0.065
-0.055,-0.065
-0.045,-0.065
-0.035,-0.055
-0.025,-0.065
-0.005,-0.065
0.015,-0.065
0.015,-0.065
0.015,-0.075
-0.005,-0.075
-0.015,-0.105
-0.025,-0.095
-0.045,-0.095
-0.055,-0.085
-0.055,-0.085
-0.055,-0.075
-0.065,-0.075
-0.065,-0.085
-0.075,-0.085
-0.055,-0.075
-0.065,-0.065
-0.075,-0.075
-0.075,-0.075
-0.065,-0.075
-0.065,-0.065
-0.075,-0.075
-0.075,-0.075
-0.065,-0.075
-0.065,-0.075
-0.065,-0.075
-0.055,-0.075
-0.055,-0.085
-0.045,-0.095
-0.045,-0.085
-0.045,-0.085
-0.045,-0.075
-0.055,-0.075
-0.055,-0.065
-0.065,-0.075
-0.065,-0.075
-0.075,-0.075
-0.075,-0.065
-0.075,-0.065
-0.055,-0.065
-0.065,-0.075
-0.055,-0.075
-0.045,-0.075
0.115,-0.075
0.625,-0.065
0.805,-0.125
0.185,-0.415
-0.205,-0.435
-0.205,-0.045
-0.185,0.025
-0.145,-0.015
-0.105,-0.025
-0.085,-0.025
-0.075,-0.035
-0.075,-0.055
-0.075,-0.075
-0.075,-0.075
-0.075,-0.075
-0.075,-0.075
-0.085,-0.065
-0.075,-0.075
-0.075,-0.065
-0.075,-0.075
-0.065,-0.065
-0.075,-0.075
-0.075,-0.075
-0.075,-0.075
-0.075,-0.075
-0.075,-0.075
-0.075,-0.065
-0.075,-0.075
-0.055,-0.065
-0.055,-0.065
-0.055,-0.055
-0.045,-0.065
-0.025,-0.055
-0.015,-0.055
0.005,-0.055
0.025,-0.065
0.025,-0.065
0.015,-0.075
0.015,-0.085
-0.015,-0.085
-0.025,-0.095
-0.035,-0.075
-0.045,-0.085
-0.065,-0.085
-0.055,-0.085
-0.065,-0.075
-0.065,-0.085
-0.055,-0.075
-0.065,-0.075
-0.065,-0.075
-0.065,-0.075
-0.065,-0.075
-0.065,-0.075
-0.065,-0.075
-0.065,-0.075
-0.065,-0.085
-0.065,-0.075
-0.065,-0.075
-0.065,-0.075
-0.055,-0.075
-0.055,-0.085
-0.055,-0.085
-0.045,-0.105
-0.025,-0.095
-0.035,-0.075
-0.035,-0.075
-0.045,-0.075
-0.045,-0.085
-0.055,-0.065
-0.055,-0.075
-0.075,-0.085
-0.065,-0.085
-0.065,-0.065
-0.065,-0.065
-0.065,-0.075
-0.055,-0.075
-0.055,-0.075
-0.025,-0.075
0.295,-0.085
0.815,-0.065
0.605,-0.225
-0.035,-0.505
-0.225,-0.285
-0.205,0.045
-0.165,-0.015
-0.145,-0.015
-0.105,-0.025
-0.085,-0.035
-0.075,-0.045
-0.075,-0.055
-0.075,-0.075
-0.075,-0.075
-0.075,-0.075
-0.075,-0.075
-0.075,-0.085
-0.075,-0.075
-0.065,-0.085
-0.085,-0.085
-0.075,-0.075
-0.075,-0.075
-0.065,-0.085
-0.075,-0.075
-0.075,-0.075
-0.065,-0.085
-0.055,-0.085
-0.055,-0.075
-0.055,-0.075
-0.055,-0.075
-0.035,-0.075
-0.025,-0.055
-0.015,-0.065
-0.005,-0.075
0.015,-0.075
0.035,-0.075
0.035,-0.075
0.025,-0.085
0.025,-0.085
0.005,-0.105
-0.015,-0.105
-0.025,-0.105
-0.045,-0.095
-0.045,-0.105
-0.045,-0.085
-0.065,-0.105
-0.055,-0.085
-0.055,-0.085
-0.065,-0.085
-0.055,-0.085
-0.065,-0.085
-0.055,-0.085
-0.055,-0.085
-0.055,-0.085
-0.055,-0.085
-0.065,-0.085
-0.065,-0.085
-0.055,-0.085
-0.065,-0.075
-0.055,-0.085
-0.055,-0.095
-0.055,-0.095
-0.035,-0.095
-0.025,-0.105
-0.025,-0.085
-0.035,-0.085
-0.035,-0.085
-0.045,-0.095
-0.045,-0.085
-0.045,-0.085
-0.055,-0.095
-0.055,-0.085
-0.065,-0.085
-0.055,-0.075
-0.045,-0.075
-0.045,-0.085
-0.045,-0.085
-0.015,-0.085
0.305,-0.095
0.805,-0.085
0.595,-0.215
-0.045,-0.495
-0.215,-0.285
-0.195,0.025
-0.165,-0.015
-0.135,-0.035
-0.095,-0.045
-0.065,-0.035
-0.075,-0.035
-0.075,-0.085
-0.075,-0.085
-0.065,-0.095
-0.065,-0.095
-0.065,-0.095
-0.065,-0.095
-0.065,-0.085
-0.075,-0.105
-0.065,-0.095
-0.065,-0.095
-0.065,-0.095
-0.065,-0.085
-0.065,-0.095
-0.065,-0.095
-0.055,-0.085
-0.055,-0.095
-0.055,-0.095
-0.055,-0.095
-0.045,-0.085
-0.035,-0.085
-0.025,-0.085
-0.005,-0.085
-0.005,-0.085
0.015,-0.085
0.045,-0.095
0.045,-0.095
0.045,-0.095
0.025,-0.105
0.005,-0.105
0.005,-0.115
-0.015,-0.115
-0.035,-0.115
-0.035,-0.115
-0.045,-0.105
-0.045,-0.095
-0.045,-0.095
-0.045,-0.095
-0.045,-0.105
-0.045,-0.095
-0.045,-0.105
-0.055,-0.095
-0.055,-0.095
-0.055,-0.095
-0.045,-0.105
-0.055,-0.105
-0.045,-0.105
-0.055,-0.095
-0.055,-0.095
-0.045,-0.105
-0.055,-0.095
-0.045,-0.095
-0.045,-0.095
-0.025,-0.125
-0.025,-0.125
-0.015,-0.105
-0.035,-0.105
-0.025,-0.095
-0.045,-0.105
-0.045,-0.095
-0.045,-0.065
-0.045,-0.105
-0.045,-0.115
-0.045,-0.095
-0.045,-0.085
-0.045,-0.095
-0.035,-0.095
-0.035,-0.095
-0.015,-0.095
0.255,-0.105
0.785,-0.085
0.655,-0.205
0.015,-0.475
-0.215,-0.325
-0.185,0.005
-0.155,-0.025
-0.125,-0.035
-0.085,-0.045
-0.055,-0.035
-0.065,-0.065
-0.055,-0.085
-0.065,-0.095
-0.055,-0.095
-0.055,-0.105
-0.065,-0.095
-0.065,-0.105
-0.045,-0.095
-0.055,-0.095
-0.055,-0.095
-0.055,-0.095
-0.055,-0.105
-0.045,-0.105
-0.045,-0.095
-0.045,-0.095
-0.035,-0.095
-0.045,-0.095
-0.035,-0.085
-0.035,-0.095
-0.015,-0.085
-0.015,-0.085
-0.005,-0.085
0.015,-0.085
0.035,-0.095
0.045,-0.085
0.055,-0.085
0.065,-0.085
0.055,-0.095
0.035,-0.095
0.015,-0.105
0.005,-0.115
-0.005,-0.105
-0.025,-0.105
-0.035,-0.095
-0.035,-0.105
-0.035,-0.095
-0.045,-0.095
-0.045,-0.085
-0.045,-0.095
-0.045,-0.095
-0.045,-0.095
-0.045,-0.095
-0.045,-0.095
-0.045,-0.085
-0.035,-0.095
-0.035,-0.095
-0.045,-0.095
-0.045,-0.095
-0.045,-0.085
-0.045,-0.085
-0.045,-0.095
-0.035,-0.085
-0.035,-0.095
-0.025,-0.095
-0.015,-0.115
-0.005,-0.095
-0.015,-0.095
-0.025,-0.085
-0.025,-0.095
-0.025,-0.085
-0.035,-0.085
-0.035,-0.085
-0.045,-0.085
-0.035,-0.075
-0.045,-0.065
-0.035,-0.075
-0.035,-0.075
-0.035,-0.075
-0.015,-0.085
0.205,-0.075
0.685,-0.075
0.655,-0.165
0.045,-0.405
-0.175,-0.315
-0.165,-0.005
-0.135,-0.005
-0.135,-0.035
-0.085,-0.045
-0.055,-0.035
-0.045,-0.035
-0.055,-0.055
-0.055,-0.075
-0.055,-0.075
-0.055,-0.075
-0.055,-0.075
-0.055,-0.075
-0.045,-0.085
-0.045,-0.075
-0.045,-0.075
-0.045,-0.085
-0.045,-0.075
-0.035,-0.075
-0.035,-0.075
-0.035,-0.075
-0.025,-0.075
-0.025,-0.065
-0.025,-0.065
-0.015,-0.075
-0.025,-0.065
-0.005,-0.055
0.005,-0.055
0.015,-0.055
0.025,-0.065
0.045,-0.055
0.055,-0.065
0.055,-0.075
0.055,-0.085
0.035,-0.085
0.025,-0.085
0.005,-0.085
-0.015,-0.085
-0.015,-0.095
-0.025,-0.085
-0.035,-0.075
-0.035,-0.095
-0.035,-0.075
-0.045,-0.075
-0.035,-0.075
-0.035,-0.075
-0.035,-0.075
-0.045,-0.075
-0.035,-0.065
-0.045,-0.075
-0.035,-0.075
-0.045,-0.075
-0.045,-0.075
-0.045,-0.075
-0.045,-0.075
-0.045,-0.075
-0.045,-0.065
-0.035,-0.085
-0.045,-0.095
-0.035,-0.095
-0.025,-0.085
-0.025,-0.085
-0.015,-0.085
-0.025,-0.075
-0.035,-0.085
-0.035,-0.085
-0.035,-0.065
-0.055,-0.085
-0.055,-0.085
-0.055,-0.065
-0.055,-0.065
-0.055,-0.055
-0.045,-0.065
-0.045,-0.075
-0.045,-0.075
0.125,-0.085
0.575,-0.065
0.705,-0.135
0.095,-0.365
-0.205,-0.385
-0.185,-0.045
-0.155,-0.015
-0.145,-0.015
-0.115,-0.035
-0.075,-0.025
-0.065,-0.035
-0.065,-0.055
-0.065,-0.065
-0.065,-0.065
-0.075,-0.075
-0.075,-0.075
-0.065,-0.065
-0.065,-0.065
-0.065,-0.065
-0.065,-0.075
-0.055,-0.075
-0.065,-0.065
-0.065,-0.075
-0.065,-0.065
-0.065,-0.075
-0.065,-0.075
-0.065,-0.065
-0.055,-0.055
-0.055,-0.065
-0.045,-0.055
-0.035,-0.045
-0.035,-0.055
-0.025,-0.055
-0.015,-0.045
0.005,-0.055
0.025,-0.055
0.035,-0.055
0.015,-0.075
0.015,-0.085
-0.005,-0.085
-0.025,-0.085
-0.045,-0.085
-0.045,-0.085
-0.045,-0.085
-0.055,-0.075
-0.055,-0.085
-0.065,-0.085
-0.055,-0.075
-0.055,-0.065
-0.065,-0.075
-0.055,-0.075
-0.055,-0.075
-0.055,-0.075
-0.065,-0.075
-0.065,-0.075
-0.065,-0.075
-0.065,-0.075
-0.065,-0.075
-0.055,-0.075
-0.055,-0.065
-0.065,-0.075
-0.065,-0.085
-0.055,-0.095
-0.045,-0.095
-0.035,-0.085
-0.045,-0.085
-0.045,-0.085
-0.055,-0.085
-0.055,-0.085
-0.065,-0.065
-0.065,-0.085
-0.065,-0.085
-0.065,-0.075
-0.065,-0.065
-0.065,-0.065
-0.055,-0.065
-0.055,-0.075
-0.055,-0.085
-0.035,-0.085
0.275,-0.085
0.735,-0.065
0.515,-0.205
-0.125,-0.465
-0.205,-0.305
-0.185,0.005
-0.165,-0.015
-0.135,-0.035
-0.105,-0.035
-0.075,-0.025
-0.075,-0.045
-0.075,-0.065
-0.075,-0.075
-0.085,-0.075
-0.085,-0.075
-0.075,-0.085
-0.085,-0.075
-0.075,-0.075
-0.075,-0.065
-0.075,-0.065
-0.065,-0.085
-0.075,-0.075
-0.075,-0.075
-0.065,-0.075
-0.065,-0.085
-0.075,-0.065
-0.075,-0.055
-0.065,-0.065
-0.055,-0.055
-0.055,-0.055
-0.055,-0.055
-0.045,-0.055
-0.025,-0.055
-0.025,-0.055
0.005,-0.045
0.015,-0.045
0.035,-0.055
0.015,-0.065
0.005,-0.085
-0.005,-0.095
-0.025,-0.095
-0.035,-0.095
-0.045,-0.095
-0.055,-0.085
-0.055,-0.075
-0.055,-0.075
-0.065,-0.075
-0.055,-0.075
-0.055,-0.075
-0.065,-0.075
-0.065,-0.075
-0.065,-0.075
-0.055,-0.065
-0.065,-0.065
-0.065,-0.065
-0.065,-0.065
-0.065,-0.065
-0.065,-0.065
-0.065,-0.065
-0.065,-0.075
-0.055,-0.065
-0.055,-0.075
-0.055,-0.075
-0.035,-0.085
-0.035,-0.085
-0.045,-0.065
-0.055,-0.075
-0.055,-0.075
-0.055,-0.075
-0.055,-0.055
-0.065,-0.065
-0.075,-0.075
-0.075,-0.065
-0.075,-0.065
-0.075,-0.055
-0.055,-0.065
-0.055,-0.065
-0.055,-0.065
0.135,-0.075
0.695,-0.055
0.755,-0.125
0.115,-0.415
-0.235,-0.415
-0.205,-0.035
-0.185,0.015
-0.165,-0.005
-0.115,-0.015
-0.095,-0.015
-0.095,-0.025
-0.085,-0.045
-0.085,-0.055
-0.085,-0.065
-0.085,-0.065
-0.095,-0.065
-0.095,-0.065
-0.095,-0.065
-0.085,-0.065
-0.095,-0.065
-0.085,-0.065
-0.095,-0.065
-0.085,-0.065
-0.085,-0.065
-0.085,-0.055
-0.085,-0.065
-0.085,-0.055
-0.085,-0.065
-0.085,-0.055
-0.075,-0.055
-0.065,-0.055
-0.065,-0.045
-0.055,-0.045
-0.035,-0.055
-0.025,-0.055
-0.015,-0.045
0.005,-0.055
0.015,-0.065
0.005,-0.065
-0.005,-0.075
-0.025,-0.085
-0.045,-0.095
-0.055,-0.085
-0.065,-0.085
-0.065,-0.085
-0.075,-0.085
-0.065,-0.075
-0.075,-0.075
-0.075,-0.075
-0.075,-0.075
-0.075,-0.075
-0.075,-0.075
-0.075,-0.065
-0.075,-0.085
-0.075,-0.075
-0.075,-0.075
-0.085,-0.075
-0.075,-0.075
-0.075,-0.075
-0.075,-0.085
-0.075,-0.075
-0.075,-0.085
-0.065,-0.085
-0.055,-0.095
-0.045,-0.095
-0.045,-0.095
-0.055,-0.085
-0.065,-0.085
-0.065,-0.085
-0.075,-0.065
-0.065,-0.075
-0.075,-0.085
-0.075,-0.085
-0.085,-0.085
-0.075,-0.075
-0.075,-0.075
-0.065,-0.075
-0.075,-0.085
-0.015,-0.075
0.315,-0.075
0.815,-0.075
0.505,-0.245
-0.135,-0.505
-0.235,-0.245
-0.205,0.025
-0.175,-0.015
-0.135,-0.025
-0.105,-0.035
-0.105,-0.035
-0.095,-0.065
-0.095,-0.075
-0.095,-0.075
-0.095,-0.085
-0.095,-0.085
-0.095,-0.095
-0.095,-0.085
-0.095,-0.095
-0.095,-0.085
-0.085,-0.095
-0.085,-0.075
-0.095,-0.095
-0.085,-0.085
-0.095,-0.085
-0.095,-0.095
-0.085,-0.085
-0.085,-0.085
-0.075,-0.085
-0.075,-0.075
-0.065,-0.075
-0.065,-0.075
-0.045,-0.065
-0.035,-0.075
-0.025,-0.075
-0.005,-0.075
0.005,-0.065
0.005,-0.075
0.005,-0.075
-0.015,-0.095
-0.025,-0.105
-0.045,-0.095
-0.055,-0.095
-0.065,-0.105
-0.065,-0.095
-0.075,-0.095
-0.085,-0.085
-0.075,-0.085
-0.075,-0.085
-0.085,-0.085
-0.085,-0.085
-0.085,-0.085
-0.075,-0.095
-0.085,-0.085
-0.085,-0.085
-0.085,-0.095
-0.075,-0.095
-0.075,-0.095
-0.085,-0.095
-0.085,-0.095
-0.075,-0.095
-0.075,-0.095
-0.065,-0.095
-0.065,-0.115
-0.045,-0.115
-0.045,-0.115
-0.055,-0.105
-0.055,-0.105
-0.065,-0.105
-0.065,-0.105
-0.065,-0.085
-0.075,-0.095
-0.075,-0.105
-0.075,-0.105
-0.075,-0.085
-0.075,-0.095
-0.075,-0.105
-0.065,-0.095
-0.075,-0.095
-0.005,-0.095
0.365,-0.105
0.815,-0.095
0.435,-0.255
-0.175,-0.495
-0.235,-0.265
-0.215,0.015
-0.185,-0.045
-0.155,-0.055
-0.105,-0.045
-0.095,-0.045
-0.105,-0.065
-0.095,-0.095
-0.095,-0.095
-0.095,-0.105
-0.105,-0.105
-0.105,-0.115
-0.095,-0.105
-0.095,-0.105
-0.105,-0.115
-0.095,-0.115
-0.105,-0.105
-0.105,-0.115
-0.105,-0.105
-0.105,-0.115
-0.095,-0.105
-0.095,-0.105
-0.095,-0.105
-0.095,-0.105
-0.075,-0.105
-0.075,-0.095
-0.065,-0.105
-0.055,-0.095
-0.045,-0.095
-0.025,-0.095
-0.005,-0.085
0.005,-0.105
0.005,-0.115
-0.015,-0.115
-0.025,-0.115
-0.045,-0.125
-0.055,-0.135
-0.065,-0.125
-0.075,-0.125
-0.085,-0.125
-0.085,-0.115
-0.095,-0.115
-0.095,-0.115
-0.095,-0.115
-0.095,-0.115
-0.095,-0.115
-0.095,-0.115
-0.095,-0.105
-0.095,-0.115
-0.105,-0.125
-0.105,-0.115
-0.095,-0.115
-0.095,-0.115
-0.095,-0.105
-0.105,-0.115
-0.095,-0.115
-0.095,-0.115
-0.095,-0.105
-0.095,-0.115
-0.075,-0.125
-0.065,-0.135
-0.065,-0.115
-0.075,-0.115
-0.075,-0.115
-0.085,-0.115
-0.095,-0.105
-0.095,-0.095
-0.095,-0.125
-0.105,-0.115
-0.095,-0.115
-0.095,-0.105
-0.095,-0.115
-0.095,-0.105
-0.085,-0.105
-0.085,-0.105
0.105,-0.115
0.615,-0.105
0.735,-0.165
0.125,-0.425
-0.255,-0.465
-0.255,-0.105
-0.215,0.005
-0.195,-0.045
-0.155,-0.065
-0.115,-0.055
-0.115,-0.065
-0.125,-0.085
-0.115,-0.105
-0.115,-0.105
-0.115,-0.105
-0.115,-0.105
-0.115,-0.115
-0.105,-0.105
-0.105,-0.105
-0.115,-0.115
-0.105,-0.105
-0.115,-0.105
-0.105,-0.105
-0.115,-0.115
-0.105,-0.115
-0.105,-0.105
-0.105,-0.105
-0.105,-0.105
-0.095,-0.105
-0.085,-0.095
-0.075,-0.095
-0.065,-0.095
-0.065,-0.105
-0.035,-0.105
-0.035,-0.095
-0.015,-0.095
-0.005,-0.095
-0.005,-0.095
-0.015,-0.105
-0.035,-0.115
-0.055,-0.125
-0.065,-0.115
-0.085,-0.115
-0.095,-0.105
-0.105,-0.105
-0.105,-0.105
-0.105,-0.105
-0.105,-0.095
-0.105,-0.105
-0.105,-0.095
-0.115,-0.095
-0.115,-0.095
-0.105,-0.095
-0.105,-0.105
-0.105,-0.095
-0.105,-0.095
-0.105,-0.095
-0.105,-0.095
-0.105,-0.085
-0.105,-0.085
-0.105,-0.095
-0.095,-0.095
-0.095,-0.095
-0.085,-0.095
-0.075,-0.105
-0.065,-0.095
-0.075,-0.095
-0.075,-0.095
-0.085,-0.105
-0.085,-0.075
-0.095,-0.075
-0.105,-0.085
-0.105,-0.095
-0.095,-0.085
-0.105,-0.075
-0.095,-0.085
-0.095,-0.095
-0.085,-0.085
-0.085,-0.085
0.075,-0.085
0.535,-0.085
0.645,-0.135
0.055,-0.365
-0.235,-0.385
-0.225,-0.075
-0.205,-0.025
-0.195,-0.025
-0.155,-0.055
-0.105,-0.035
-0.105,-0.035
-0.115,-0.065
-0.115,-0.085
-0.105,-0.085
-0.115,-0.075
-0.115,-0.085
-0.105,-0.075
-0.105,-0.065
-0.095,-0.085
-0.095,-0.085
-0.105,-0.075
-0.105,-0.085
-0.095,-0.075
-0.095,-0.075
-0.095,-0.075
-0.095,-0.085
-0.085,-0.075
-0.085,-0.075
-0.085,-0.075
-0.085,-0.075
-0.065,-0.065
-0.055,-0.065
-0.055,-0.075
-0.025,-0.075
-0.015,-0.065
-0.005,-0.055
-0.005,-0.065
-0.005,-0.075
-0.015,-0.085
-0.035,-0.095
-0.045,-0.095
-0.065,-0.105
-0.065,-0.095
-0.085,-0.085
-0.085,-0.085
-0.085,-0.085
-0.085,-0.075
-0.085,-0.075
-0.095,-0.075
-0.095,-0.085
-0.085,-0.075
-0.085,-0.065
-0.085,-0.075
-0.085,-0.075
-0.085,-0.075
-0.095,-0.065
-0.095,-0.065
-0.085,-0.075
-0.085,-0.065
-0.085,-0.065
-0.085,-0.075
-0.085,-0.075
-0.075,-0.065
-0.075,-0.075
-0.065,-0.075
-0.055,-0.075
-0.065,-0.075
-0.065,-0.065
-0.075,-0.065
-0.075,-0.065
-0.075,-0.055
-0.075,-0.065
-0.095,-0.065
-0.085,-0.065
-0.075,-0.055
-0.085,-0.055
-0.085,-0.055
-0.065,-0.055
-0.065,-0.055
-0.015,-0.075
0.335,-0.065
0.715,-0.075
0.395,-0.235
-0.165,-0.425
-0.215,-0.215
-0.185,0.005
-0.175,-0.015
-0.155,-0.015
-0.105,-0.025
-0.095,-0.025
-0.085,-0.035
-0.085,-0.055
-0.095,-0.065
-0.085,-0.065
-0.085,-0.075
-0.085,-0.065
-0.095,-0.065
-0.085,-0.075
-0.075,-0.075
-0.075,-0.065
-0.085,-0.065
-0.085,-0.065
-0.075,-0.065
-0.075,-0.055
-0.075,-0.055
-0.065,-0.065
-0.065,-0.055
-0.075,-0.055
-0.065,-0.045
-0.065,-0.055
-0.045,-0.045
-0.045,-0.045
-0.035,-0.045
-0.015,-0.045
0.005,-0.035
0.015,-0.055
0.015,-0.055
0.005,-0.075
-0.005,-0.075
-0.015,-0.085
-0.035,-0.095
-0.045,-0.095
-0.045,-0.085
-0.065,-0.085
-0.065,-0.085
-0.065,-0.075
-0.065,-0.085
-0.065,-0.075
-0.075,-0.075
-0.065,-0.085
-0.065,-0.075
-0.065,-0.075
-0.075,-0.075
-0.065,-0.075
-0.065,-0.075
-0.065,-0.065
-0.075,-0.065
-0.075,-0.065
-0.065,-0.065
-0.075,-0.055
-0.065,-0.065
-0.065,-0.075
-0.055,-0.075
-0.045,-0.085
-0.035,-0.075
-0.045,-0.065
-0.045,-0.065
-0.045,-0.065
-0.055,-0.065
-0.065,-0.055
-0.065,-0.065
-0.075,-0.065
-0.075,-0.065
-0.075,-0.055
-0.065,-0.055
-0.065,-0.055
-0.065,-0.055
-0.055,-0.065
-0.005,-0.065
0.355,-0.065
0.805,-0.055
0.495,-0.235
-0.145,-0.475
-0.215,-0.235
-0.185,0.025
-0.165,-0.005
-0.135,-0.025
-0.095,-0.015
-0.085,-0.015
-0.085,-0.035
-0.075,-0.045
-0.085,-0.055
-0.085,-0.055
-0.085,-0.055
-0.085,-0.055
-0.075,-0.055
-0.085,-0.055
-0.085,-0.055
-0.075,-0.055
-0.085,-0.065
-0.085,-0.055
-0.085,-0.065
-0.075,-0.065
-0.075,-0.055
-0.075,-0.045
-0.075,-0.055
-0.065,-0.055
-0.065,-0.055
-0.065,-0.055
-0.055,-0.045
-0.045,-0.045
-0.025,-0.045
-0.015,-0.045
0.005,-0.045
0.015,-0.045
0.025,-0.055
0.015,-0.065
0.015,-0.075
-0.005,-0.085
-0.025,-0.085
-0.035,-0.085
-0.045,-0.085
-0.055,-0.075
-0.055,-0.075
-0.055,-0.065
-0.065,-0.075
-0.055,-0.075
-0.065,-0.065
-0.065,-0.075
-0.065,-0.065
-0.055,-0.065
-0.065,-0.075
-0.055,-0.075
-0.065,-0.065
-0.055,-0.065
-0.065,-0.065
-0.065,-0.055
-0.055,-0.065
-0.055,-0.055
-0.045,-0.065
-0.045,-0.085
-0.025,-0.085
-0.035,-0.065
-0.035,-0.075
-0.045,-0.065
-0.045,-0.065
-0.045,-0.055
-0.055,-0.065
-0.065,-0.065
-0.065,-0.075
-0.055,-0.055
-0.055,-0.065
-0.055,-0.065
-0.045,-0.065
-0.045,-0.065
-0.025,-0.065
0.245,-0.075
0.765,-0.065
0.705,-0.165
0.065,-0.455
-0.215,-0.365
-0.165,0.005
-0.155,0.005
-0.135,-0.005
-0.095,-0.015
-0.075,-0.015
-0.065,-0.025
-0.075,-0.045
-0.065,-0.065
-0.065,-0.065
-0.065,-0.055
-0.065,-0.055
-0.065,-0.055
-0.065,-0.055
-0.055,-0.065
-0.065,-0.075
-0.065,-0.075
-0.055,-0.075
-0.045,-0.065
-0.055,-0.065
-0.055,-0.065
-0.055,-0.065
-0.055,-0.065
-0.045,-0.065
-0.045,-0.065
-0.035,-0.065
-0.025,-0.055
-0.025,-0.055
-0.025,-0.055
-0.005,-0.045
0.025,-0.045
0.035,-0.045
0.035,-0.055
0.035,-0.065
0.025,-0.075
0.005,-0.075
-0.015,-0.085
-0.025,-0.095
-0.025,-0.085
-0.045,-0.085
-0.035,-0.085
-0.045,-0.085
-0.055,-0.085
-0.045,-0.075
-0.055,-0.075
-0.065,-0.095
-0.055,-0.075
-0.055,-0.065
-0.055,-0.065
-0.045,-0.065
-0.045,-0.075
-0.045,-0.085
-0.045,-0.075
-0.055,-0.075
-0.045,-0.075
-0.045,-0.075
-0.035,-0.095
-0.025,-0.095
-0.025,-0.095
-0.005,-0.095
-0.025,-0.085
-0.025,-0.085
-0.025,-0.075
-0.035,-0.075
-0.035,-0.065
-0.035,-0.085
-0.045,-0.075
-0.045,-0.075
-0.045,-0.075
-0.045,-0.075
-0.025,-0.075
-0.025,-0.065
-0.035,-0.085
0.055,-0.085
0.475,-0.085
0.845,-0.075
0.385,-0.285
-0.165,-0.495
-0.195,-0.185
-0.165,0.045
-0.135,-0.015
-0.095,-0.025
-0.055,-0.035
-0.055,-0.025
-0.045,-0.045
-0.045,-0.065
-0.035,-0.075
-0.035,-0.075
-0.035,-0.075
-0.025,-0.085
-0.025,-0.075
-0.015,-0.075
-0.015,-0.085
-0.015,-0.075
-0.015,-0.075
-0.015,-0.075
-0.015,-0.085
0.005,-0.075
0.005,-0.065
-0.005,-0.075
0.005,-0.075
-0.005,-0.075
0.005,-0.065
0.015,-0.065
0.015,-0.055
0.025,-0.065
0.045,-0.065
0.045,-0.065
0.065,-0.055
0.075,-0.065
0.075,-0.075
0.065,-0.085
0.045,-0.085
0.035,-0.095
0.015,-0.105
-0.005,-0.095
-0.015,-0.095
-0.025,-0.095
-0.015,-0.085
-0.035,-0.075
-0.035,-0.095
-0.025,-0.085
-0.025,-0.085
-0.035,-0.095
-0.035,-0.085
-0.045,-0.085
-0.035,-0.085
-0.045,-0.075
-0.045,-0.085
-0.035,-0.075
-0.025,-0.075
-0.035,-0.085
-0.045,-0.085
-0.035,-0.085
-0.025,-0.085
-0.025,-0.095
-0.015,-0.105
0.005,-0.095
-0.015,-0.075
-0.015,-0.085
-0.025,-0.095
-0.025,-0.095
-0.025,-0.075
-0.035,-0.075
-0.045,-0.095
-0.045,-0.085
-0.035,-0.075
-0.035,-0.075
-0.035,-0.085
-0.035,-0.075
-0.025,-0.085
0.075,-0.085
0.535,-0.085
0.845,-0.105
0.295,-0.305
-0.185,-0.465
-0.195,-0.145
-0.165,0.025
-0.135,-0.025
-0.105,-0.035
-0.065,-0.035
-0.055,-0.025
-0.055,-0.045
-0.055,-0.075
-0.055,-0.065
-0.065,-0.085
-0.055,-0.085
-0.055,-0.085
-0.055,-0.075
-0.045,-0.085
-0.045,-0.085
-0.055,-0.075
-0.055,-0.075
-0.045,-0.085
-0.035,-0.075
-0.055,-0.085
-0.045,-0.075
-0.045,-0.075
-0.025,-0.075
-0.025,-0.075
-0.035,-0.075
-0.015,-0.075
-0.015,-0.065
0.005,-0.055
0.015,-0.065
0.045,-0.075
0.055,-0.065
0.065,-0.065
0.065,-0.075
0.055,-0.095
0.045,-0.085
0.015,-0.095
0.005,-0.095
-0.015,-0.095
-0.015,-0.085
-0.035,-0.085
-0.025,-0.085
-0.035,-0.085
-0.045,-0.075
-0.035,-0.075
-0.045,-0.085
-0.045,-0.085
-0.035,-0.075
-0.045,-0.075
-0.045,-0.075
-0.045,-0.075
-0.045,-0.075
-0.045,-0.065
-0.045,-0.075
-0.045,-0.075
-0.045,-0.075
-0.035,-0.065
-0.045,-0.065
-0.035,-0.075
-0.025,-0.085
-0.015,-0.085
-0.005,-0.085
-0.015,-0.075
-0.015,-0.075
-0.025,-0.075
-0.035,-0.065
-0.035,-0.055
-0.035,-0.075
-0.045,-0.065
-0.045,-0.065
-0.045,-0.055
-0.045,-0.055
-0.035,-0.055
-0.035,-0.055
-0.025,-0.065
0.105,-0.065
0.545,-0.065
0.775,-0.105
0.215,-0.315
-0.175,-0.395
-0.185,-0.075
-0.155,0.025
-0.135,-0.005
-0.105,-0.035
-0.055,-0.025
-0.055,-0.015
-0.055,-0.035
-0.055,-0.065
-0.055,-0.065
-0.065,-0.065
-0.065,-0.065
-0.055,-0.055
-0.065,-0.055
-0.055,-0.065
-0.055,-0.065
-0.055,-0.055
-0.055,-0.055
-0.055,-0.065
-0.055,-0.065
-0.045,-0.065
-0.055,-0.065
-0.045,-0.055
-0.045,-0.065
-0.025,-0.055
-0.025,-0.045
-0.025,-0.055
-0.015,-0.065
0.005,-0.045
0.015,-0.055
0.025,-0.045
0.045,-0.055
0.055,-0.055
0.045,-0.055
0.025,-0.075
0.005,-0.085
-0.005,-0.075
-0.025,-0.075
-0.035,-0.085
-0.045,-0.075
-0.045,-0.065
-0.055,-0.065
-0.055,-0.065
-0.055,-0.065
-0.045,-0.055
-0.055,-0.055
-0.055,-0.055
-0.035,-0.065
-0.045,-0.065
-0.055,-0.065
-0.055,-0.065
-0.055,-0.065
-0.045,-0.055
-0.055,-0.065
-0.045,-0.065
-0.045,-0.065
-0.055,-0.065
-0.045,-0.065
-0.045,-0.075
-0.025,-0.075
-0.025,-0.065
-0.035,-0.075
-0.025,-0.065
-0.035,-0.075
-0.045,-0.065
-0.055,-0.065
-0.055,-0.065
-0.065,-0.065
-0.065,-0.065
-0.055,-0.055
-0.065,-0.055
-0.045,-0.055
-0.035,-0.055
-0.025,-0.065
0.185,-0.075
0.635,-0.065
0.615,-0.155
0.015,-0.365
-0.205,-0.355
-0.185,-0.035
-0.155,-0.005
-0.155,-0.005
-0.105,-0.035
-0.085,-0.025
-0.075,-0.025
-0.075,-0.045
-0.075,-0.065
-0.075,-0.055
-0.065,-0.055
-0.075,-0.065
-0.075,-0.065
-0.075,-0.065
-0.075,-0.065
-0.075,-0.065
-0.065,-0.065
-0.065,-0.065
-0.075,-0.065
-0.075,-0.065
-0.075,-0.055
-0.065,-0.055
-0.065,-0.065
-0.055,-0.065
-0.055,-0.055
-0.055,-0.055
-0.045,-0.045
-0.035,-0.055
-0.025,-0.045
-0.005,-0.055
0.005,-0.055
0.015,-0.055
0.025,-0.055
0.025,-0.065
0.005,-0.075
-0.015,-0.085
-0.025,-0.095
-0.035,-0.095
-0.045,-0.085
-0.055,-0.085
-0.055,-0.085
-0.065,-0.085
-0.065,-0.085
-0.065,-0.085
-0.065,-0.065
-0.065,-0.085
-0.065,-0.085
-0.065,-0.085
-0.065,-0.075
-0.065,-0.085
-0.065,-0.075
-0.065,-0.075
-0.065,-0.085
-0.065,-0.085
-0.065,-0.075
-0.065,-0.085
-0.055,-0.075
-0.055,-0.085
-0.045,-0.095
-0.035,-0.095
-0.045,-0.085
-0.045,-0.095
-0.045,-0.085
-0.055,-0.085
-0.055,-0.075
-0.065,-0.075
-0.065,-0.085
-0.065,-0.085
-0.065,-0.075
-0.075,-0.075
-0.065,-0.065
-0.065,-0.075
-0.055,-0.075
-0.055,-0.075
0.045,-0.075
0.485,-0.075
0.765,-0.085
0.255,-0.285
-0.195,-0.455
-0.205,-0.165
-0.175,0.005
-0.155,-0.025
-0.125,-0.035
-0.085,-0.025
-0.085,-0.035
-0.075,-0.055
-0.075,-0.065
-0.075,-0.075
-0.085,-0.075
-0.085,-0.075
-0.065,-0.075
-0.075,-0.065
-0.075,-0.065
-0.075,-0.075
-0.075,-0.075
-0.075,-0.075
-0.075,-0.065
-0.075,-0.075
-0.065,-0.065
-0.065,-0.065
-0.065,-0.065
-0.065,-0.065
-0.065,-0.065
-0.065,-0.065
-0.055,-0.045
-0.045,-0.055
-0.035,-0.045
-0.025,-0.045
-0.015,-0.055
0.005,-0.055
0.015,-0.055
0.025,-0.055
0.015,-0.055
0.005,-0.085
0.005,-0.085
-0.025,-0.085
-0.035,-0.085
-0.045,-0.085
-0.055,-0.085
-0.055,-0.075
-0.055,-0.075
-0.055,-0.085
-0.055,-0.085
-0.055,-0.065
-0.065,-0.075
-0.055,-0.075
-0.065,-0.075
-0.055,-0.065
-0.055,-0.065
-0.055,-0.075
-0.055,-0.075
-0.065,-0.065
-0.055,-0.065
-0.065,-0.085
-0.055,-0.065
-0.055,-0.065
-0.055,-0.085
-0.035,-0.095
-0.025,-0.085
-0.035,-0.065
-0.035,-0.065
-0.045,-0.075
-0.045,-0.075
-0.055,-0.055
-0.055,-0.075
-0.065,-0.085
-0.065,-0.065
-0.055,-0.055
-0.065,-0.055
-0.055,-0.065
-0.055,-0.065
-0.045,-0.075
0.095,-0.065
0.585,-0.065
0.825,-0.095
0.275,-0.345
-0.205,-0.475
-0.205,-0.135
-0.175,0.045
-0.155,-0.015
-0.115,-0.015
-0.085,-0.025
-0.075,-0.035
-0.085,-0.045
-0.085,-0.065
-0.085,-0.065
-0.075,-0.065
-0.085,-0.065
-0.085,-0.075
-0.085,-0.065
-0.075,-0.065
-0.075,-0.065
-0.075,-0.065
-0.085,-0.075
-0.075,-0.065
-0.075,-0.065
-0.085,-0.065
-0.075,-0.065
-0.065,-0.055
-0.075,-0.065
-0.075,-0.065
-0.065,-0.055
-0.065,-0.055
-0.045,-0.045
-0.035,-0.045
-0.025,-0.045
-0.005,-0.055
0.005,-0.055
0.005,-0.055
0.015,-0.065
0.005,-0.075
-0.005,-0.075
-0.025,-0.085
-0.035,-0.095
-0.035,-0.085
-0.055,-0.095
-0.065,-0.085
-0.065,-0.075
-0.065,-0.085
-0.075,-0.075
-0.075,-0.065
-0.075,-0.085
-0.065,-0.075
-0.075,-0.065
-0.075,-0.065
-0.075,-0.085
-0.065,-0.075
-0.075,-0.065
-0.075,-0.075
-0.075,-0.065
-0.065,-0.085
-0.075,-0.075
-0.065,-0.075
-0.055,-0.085
-0.045,-0.085
-0.045,-0.085
-0.055,-0.085
-0.055,-0.095
-0.055,-0.075
-0.065,-0.075
-0.065,-0.065
-0.075,-0.085
-0.075,-0.085
-0.085,-0.075
-0.085,-0.065
-0.075,-0.065
-0.065,-0.065
-0.065,-0.075
-0.065,-0.065
0.075,-0.085
0.565,-0.075
0.825,-0.095
0.215,-0.325
-0.235,-0.475
-0.225,-0.145
-0.195,0.035
-0.165,-0.015
-0.135,-0.035
-0.095,-0.035
-0.085,-0.045
-0.095,-0.055
-0.095,-0.075
-0.085,-0.085
-0.085,-0.075
-0.095,-0.085
-0.095,-0.085
-0.085,-0.075
-0.095,-0.075
-0.085,-0.085
-0.085,-0.085
-0.095,-0.095
-0.085,-0.075
-0.085,-0.085
-0.085,-0.095
-0.085,-0.085
-0.085,-0.075
-0.085,-0.095
-0.075,-0.075
-0.075,-0.085
-0.075,-0.075
-0.055,-0.065
-0.045,-0.075
-0.025,-0.065
-0.025,-0.075
0.005,-0.065
0.015,-0.085
0.015,-0.085
-0.005,-0.095
-0.015,-0.105
-0.035,-0.115
-0.045,-0.105
-0.055,-0.105
-0.065,-0.105
-0.075,-0.095
-0.065,-0.095
-0.085,-0.095
-0.085,-0.095
-0.085,-0.095
-0.075,-0.095
-0.075,-0.095
-0.095,-0.095
-0.075,-0.095
-0.075,-0.085
-0.085,-0.095
-0.085,-0.095
-0.085,-0.095
-0.085,-0.095
-0.085,-0.095
-0.085,-0.095
-0.075,-0.085
-0.065,-0.105
-0.065,-0.105
-0.045,-0.105
-0.055,-0.105
-0.055,-0.105
-0.055,-0.095
-0.075,-0.095
-0.065,-0.095
-0.065,-0.075
-0.075,-0.095
-0.075,-0.105
-0.085,-0.095
-0.075,-0.085
-0.075,-0.095
-0.075,-0.085
-0.065,-0.095
-0.055,-0.095
0.215,-0.095
0.735,-0.085
0.625,-0.185
-0.015,-0.445
-0.255,-0.375
-0.215,-0.015
-0.185,-0.025
-0.165,-0.045
-0.125,-0.055
-0.105,-0.045
-0.105,-0.065
-0.105,-0.095
-0.105,-0.085
-0.115,-0.095
-0.095,-0.105
-0.095,-0.105
-0.105,-0.105
-0.105,-0.115
-0.105,-0.105
-0.095,-0.105
-0.105,-0.105
-0.105,-0.105
-0.095,-0.105
-0.095,-0.105
-0.105,-0.105
-0.105,-0.105
-0.095,-0.105
-0.085,-0.105
-0.085,-0.095
-0.075,-0.095
-0.065,-0.095
-0.055,-0.095
-0.045,-0.095
-0.025,-0.085
-0.015,-0.095
0.005,-0.095
0.005,-0.095
-0.005,-0.105
-0.005,-0.115
-0.025,-0.125
-0.045,-0.125
-0.065,-0.115
-0.075,-0.115
-0.085,-0.125
-0.085,-0.115
-0.095,-0.115
-0.095,-0.115
-0.095,-0.105
-0.095,-0.105
-0.095,-0.105
-0.105,-0.115
-0.085,-0.105
-0.095,-0.105
-0.105,-0.115
-0.095,-0.115
-0.095,-0.105
-0.105,-0.105
-0.105,-0.105
-0.105,-0.115
-0.095,-0.105
-0.095,-0.105
-0.095,-0.105
-0.085,-0.125
-0.065,-0.115
-0.065,-0.105
-0.075,-0.115
-0.085,-0.115
-0.085,-0.115
-0.085,-0.105
-0.095,-0.105
-0.095,-0.125
-0.095,-0.115
-0.105,-0.095
-0.105,-0.095
-0.095,-0.105
-0.095,-0.095
-0.095,-0.105
-0.085,-0.105
0.065,-0.105
0.565,-0.105
0.745,-0.135
0.165,-0.365
-0.255,-0.475
-0.255,-0.155
-0.225,0.015
-0.205,-0.045
-0.165,-0.065
-0.125,-0.055
-0.115,-0.055
-0.125,-0.075
-0.125,-0.095
-0.115,-0.095
-0.125,-0.095
-0.115,-0.095
-0.125,-0.095
-0.115,-0.105
-0.115,-0.095
-0.115,-0.105
-0.115,-0.095
-0.115,-0.095
-0.115,-0.095
-0.105,-0.085
-0.115,-0.095
-0.105,-0.095
-0.105,-0.095
-0.105,-0.085
-0.095,-0.095
-0.095,-0.085
-0.075,-0.075
-0.075,-0.075
-0.065,-0.085
-0.045,-0.075
-0.025,-0.085
-0.015,-0.085
-0.005,-0.085
-0.015,-0.095
-0.025,-0.105
-0.045,-0.105
-0.055,-0.115
-0.065,-0.105
-0.085,-0.105
-0.095,-0.095
-0.105,-0.095
-0.105,-0.085
-0.115,-0.085
-0.115,-0.085
-0.115,-0.085
-0.105,-0.095
-0.115,-0.085
-0.115,-0.075
-0.115,-0.075
-0.115,-0.085
-0.115,-0.085
-0.115,-0.075
-0.105,-0.085
-0.105,-0.075
-0.115,-0.075
-0.115,-0.075
-0.105,-0.085
-0.105,-0.085
-0.095,-0.085
-0.085,-0.095
-0.075,-0.095
-0.075,-0.085
-0.085,-0.085
-0.095,-0.095
-0.095,-0.085
-0.095,-0.075
-0.105,-0.085
-0.105,-0.085
-0.105,-0.075
-0.095,-0.075
-0.105,-0.075
-0.095,-0.065
-0.095,-0.075
-0.075,-0.075
0.115,-0.085
0.605,-0.075
0.595,-0.155
-0.045,-0.395
-0.245,-0.355
-0.225,-0.025
-0.205,-0.035
-0.185,-0.025
-0.155,-0.035
-0.125,-0.035
-0.105,-0.035
-0.105,-0.055
-0.115,-0.065
-0.115,-0.065
-0.115,-0.065
-0.115,-0.075
-0.115,-0.075
-0.105,-0.065
-0.105,-0.075
-0.095,-0.075
-0.105,-0.075
-0.105,-0.065
-0.095,-0.075
-0.095,-0.075
-0.095,-0.075
-0.095,-0.065
-0.095,-0.075
-0.075,-0.065
-0.085,-0.065
-0.075,-0.055
-0.075,-0.065
-0.055,-0.055
-0.055,-0.055
-0.035,-0.055
-0.015,-0.055
0.005,-0.055
0.015,-0.055
-0.005,-0.075
-0.015,-0.095
-0.035,-0.085
-0.045,-0.085
-0.065,-0.085
-0.065,-0.085
-0.075,-0.085
-0.075,-0.085
-0.085,-0.075
-0.085,-0.065
-0.075,-0.075
-0.075,-0.065
-0.085,-0.075
-0.085,-0.085
-0.075,-0.075
-0.075,-0.075
-0.085,-0.065
-0.075,-0.075
-0.075,-0.075
-0.095,-0.065
-0.085,-0.065
-0.075,-0.065
-0.065,-0.065
-0.075,-0.075
-0.065,-0.075
-0.065,-0.085
-0.055,-0.085
-0.065,-0.075
-0.065,-0.085
-0.055,-0.075
-0.065,-0.075
-0.065,-0.075
-0.085,-0.065
-0.085,-0.085
-0.075,-0.075
-0.085,-0.075
-0.085,-0.065
-0.075,-0.065
-0.065,-0.065
-0.065,-0.075
-0.075,-0.065
0.015,-0.075
0.425,-0.075
0.675,-0.085
0.175,-0.275
-0.195,-0.415
-0.195,-0.115
-0.175,-0.005
-0.165,-0.015
-0.135,-0.035
-0.095,-0.025
-0.085,-0.025
-0.085,-0.035
-0.085,-0.065
-0.075,-0.075
-0.075,-0.065
-0.075,-0.065
-0.075,-0.075
-0.075,-0.065
-0.085,-0.065
-0.085,-0.065
-0.075,-0.075
-0.075,-0.065
-0.075,-0.065
-0.075,-0.065
-0.075,-0.065
-0.065,-0.055
-0.065,-0.065
-0.065,-0.055
-0.065,-0.055
-0.055,-0.055
-0.055,-0.055
-0.055,-0.045
-0.035,-0.045
-0.025,-0.045
-0.015,-0.045
0.005,-0.045
0.015,-0.055
0.035,-0.055
0.015,-0.075
0.005,-0.085
-0.015,-0.085
-0.025,-0.095
-0.035,-0.085
-0.045,-0.085
-0.055,-0.085
-0.055,-0.075
-0.055,-0.075
-0.065,-0.075
-0.055,-0.075
-0.065,-0.065
-0.055,-0.065
-0.055,-0.065
-0.055,-0.065
-0.055,-0.055
-0.065,-0.055
-0.055,-0.065
-0.065,-0.055
-0.055,-0.065
-0.065,-0.065
-0.065,-0.065
-0.055,-0.055
-0.045,-0.055
-0.045,-0.065
-0.045,-0.085
-0.035,-0.085
-0.035,-0.065
-0.045,-0.065
-0.045,-0.065
-0.045,-0.075
-0.045,-0.055
-0.055,-0.065
-0.065,-0.065
-0.065,-0.065
-0.065,-0.055
-0.055,-0.045
-0.055,-0.055
-0.055,-0.055
-0.045,-0.055
-0.015,-0.065
0.325,-0.055
0.805,-0.045
0.585,-0.195
-0.055,-0.465
-0.205,-0.285
-0.185,0.035
-0.155,0.005
-0.135,-0.015
-0.095,-0.015
-0.085,-0.005
-0.075,-0.025
-0.075,-0.045
-0.075,-0.045
-0.075,-0.055
-0.075,-0.055
-0.075,-0.055
-0.075,-0.055
-0.075,-0.065
-0.075,-0.065
-0.075,-0.055
-0.075,-0.055
-0.075,-0.055
-0.065,-0.055
-0.075,-0.055
-0.075,-0.055
-0.075,-0.055
-0.075,-0.055
-0.075,-0.045
-0.065,-0.045
-0.065,-0.045
-0.055,-0.035
-0.045,-0.035
-0.035,-0.035
-0.025,-0.045
-0.005,-0.025
0.015,-0.035
0.025,-0.035
0.015,-0.055
0.015,-0.065
-0.005,-0.075
-0.015,-0.065
-0.035,-0.075
-0.045,-0.075
-0.055,-0.075
-0.065,-0.065
-0.055,-0.055
-0.055,-0.055
-0.065,-0.065
-0.065,-0.055
-0.065,-0.055
-0.055,-0.065
-0.065,-0.065
-0.075,-0.055
-0.055,-0.065
-0.065,-0.055
-0.065,-0.065
-0.065,-0.065
-0.065,-0.065
-0.055,-0.065
-0.055,-0.065
-0.045,-0.075
-0.045,-0.085
-0.025,-0.075
-0.045,-0.065
-0.045,-0.065
-0.055,-0.065
-0.055,-0.065
-0.065,-0.055
-0.065,-0.075
-0.065,-0.065
-0.065,-0.075
-0.065,-0.055
-0.065,-0.055
-0.065,-0.055
-0.055,-0.055
-0.055,-0.065
0.155,-0.065
0.695,-0.055
0.765,-0.115
0.125,-0.395
-0.225,-0.415
-0.205,-0.045
-0.175,0.025
-0.155,-0.005
-0.115,-0.025
-0.085,-0.015
-0.085,-0.025
-0.085,-0.035
-0.085,-0.055
-0.085,-0.065
-0.085,-0.055
-0.095,-0.065
-0.085,-0.055
-0.075,-0.075
-0.075,-0.075
-0.085,-0.065
-0.085,-0.065
-0.085,-0.075
-0.075,-0.065
-0.085,-0.065
-0.075,-0.065
-0.075,-0.065
-0.075,-0.055
-0.075,-0.055
-0.075,-0.055
-0.065,-0.055
-0.055,-0.055
-0.055,-0.055
-0.045,-0.045
-0.025,-0.045
-0.005,-0.045
0.005,-0.045
0.015,-0.065
0.015,-0.055
0.015,-0.075
0.005,-0.075
-0.015,-0.085
-0.035,-0.085
-0.035,-0.075
-0.055,-0.075
-0.055,-0.075
-0.065,-0.075
-0.065,-0.065
-0.065,-0.075
-0.065,-0.065
-0.065,-0.065
-0.065,-0.075
-0.055,-0.075
-0.065,-0.065
-0.065,-0.085
-0.065,-0.075
-0.065,-0.065
-0.065,-0.075
-0.065,-0.075
-0.065,-0.065
-0.065,-0.075
-0.065,-0.075
-0.055,-0.075
-0.045,-0.085
-0.035,-0.085
-0.035,-0.085
-0.035,-0.075
-0.035,-0.075
-0.045,-0.075
-0.045,-0.065
-0.055,-0.075
-0.055,-0.085
-0.065,-0.085
-0.065,-0.075
-0.055,-0.065
-0.055,-0.065
-0.045,-0.065
-0.055,-0.065
-0.035,-0.075
0.255,-0.075
0.805,-0.055
0.605,-0.165
-0.035,-0.455
-0.225,-0.325
-0.195,0.025
-0.165,-0.005
-0.135,-0.025
-0.095,-0.035
-0.075,-0.025
-0.075,-0.045
-0.075,-0.065
-0.075,-0.065
-0.085,-0.075
-0.085,-0.075
-0.075,-0.075
-0.075,-0.075
-0.075,-0.075
-0.075,-0.075
-0.075,-0.085
-0.075,-0.085
-0.075,-0.075
-0.075,-0.075
-0.075,-0.085
-0.075,-0.075
-0.065,-0.075
-0.065,-0.075
-0.055,-0.085
-0.045,-0.075
-0.045,-0.075
-0.035,-0.075
-0.025,-0.075
-0.015,-0.065
0.005,-0.065
0.015,-0.065
0.035,-0.075
0.045,-0.075
0.035,-0.085
0.015,-0.085
0.005,-0.105
-0.015,-0.095
-0.025,-0.105
-0.035,-0.085
-0.055,-0.095
-0.045,-0.095
-0.065,-0.085
-0.055,-0.085
-0.055,-0.085
-0.065,-0.085
-0.055,-0.085
-0.055,-0.075
-0.055,-0.075
-0.055,-0.085
-0.055,-0.085
-0.055,-0.075
-0.055,-0.075
-0.055,-0.075
-0.055,-0.085
-0.055,-0.085
-0.045,-0.075
-0.045,-0.085
-0.045,-0.095
-0.035,-0.105
-0.025,-0.105
-0.015,-0.085
-0.025,-0.085
-0.035,-0.085
-0.035,-0.095
-0.035,-0.075
-0.045,-0.075
-0.045,-0.085
-0.055,-0.095
-0.055,-0.075
-0.055,-0.075
-0.055,-0.075
-0.045,-0.075
-0.045,-0.075
-0.025,-0.075
0.245,-0.085
0.755,-0.075
0.645,-0.185
0.005,-0.445
-0.205,-0.335
-0.185,0.005
-0.165,-0.015
-0.145,-0.025
-0.095,-0.035
-0.075,-0.025
-0.075,-0.035
-0.075,-0.055
-0.075,-0.075
-0.065,-0.075
-0.065,-0.075
-0.065,-0.075
-0.065,-0.075
-0.065,-0.085
-0.055,-0.085
-0.065,-0.085
-0.065,-0.075
-0.065,-0.085
-0.055,-0.075
-0.055,-0.085
-0.065,-0.085
-0.055,-0.085
-0.055,-0.075
-0.055,-0.075
-0.045,-0.065
-0.035,-0.065
-0.025,-0.075
-0.015,-0.055
-0.005,-0.065
0.015,-0.065
0.025,-0.065
0.045,-0.065
0.045,-0.065
0.045,-0.085
0.025,-0.085
0.005,-0.095
-0.015,-0.095
-0.025,-0.085
-0.035,-0.085
-0.035,-0.075
-0.045,-0.075
-0.045,-0.085
-0.045,-0.075
-0.055,-0.075
-0.045,-0.075
-0.055,-0.065
-0.045,-0.075
-0.045,-0.075
-0.045,-0.065
-0.045,-0.075
-0.035,-0.065
-0.045,-0.065
-0.045,-0.075
-0.045,-0.075
-0.035,-0.065
-0.035,-0.065
-0.035,-0.075
-0.025,-0.095
-0.005,-0.085
-0.005,-0.075
-0.025,-0.075
-0.015,-0.085
-0.025,-0.075
-0.025,-0.065
-0.035,-0.065
-0.045,-0.075
-0.035,-0.075
-0.045,-0.065
-0.045,-0.055
-0.035,-0.065
-0.035,-0.075
-0.025,-0.065
-0.025,-0.065
0.105,-0.075
0.605,-0.075
0.785,-0.115
0.145,-0.355
-0.205,-0.405
-0.185,-0.045
-0.145,0.015
-0.135,-0.005
-0.095,-0.035
-0.055,-0.015
-0.055,-0.025
-0.055,-0.045
-0.055,-0.055
-0.055,-0.065
-0.045,-0.065
-0.055,-0.065
-0.055,-0.075
-0.045,-0.065
-0.055,-0.075
-0.055,-0.075
-0.045,-0.075
-0.055,-0.075
-0.045,-0.065
-0.045,-0.065
-0.055,-0.065
-0.035,-0.055
-0.035,-0.065
-0.045,-0.065
-0.045,-0.055
-0.025,-0.055
-0.025,-0.045
-0.015,-0.045
-0.005,-0.055
0.025,-0.045
0.035,-0.045
0.055,-0.045
0.065,-0.055
0.055,-0.055
0.035,-0.065
0.015,-0.075
-0.005,-0.085
-0.005,-0.085
-0.025,-0.085
-0.035,-0.075
-0.035,-0.075
-0.035,-0.075
-0.045,-0.065
-0.045,-0.065
-0.035,-0.075
-0.035,-0.055
-0.045,-0.065
-0.045,-0.065
-0.045,-0.065
-0.045,-0.065
-0.045,-0.065
-0.045,-0.065
-0.045,-0.065
-0.045,-0.065
-0.045,-0.065
-0.045,-0.075
-0.035,-0.065
-0.035,-0.085
-0.025,-0.075
-0.005,-0.075
-0.025,-0.065
-0.015,-0.065
-0.035,-0.065
-0.035,-0.065
-0.035,-0.055
-0.035,-0.045
-0.055,-0.065
-0.055,-0.065
-0.055,-0.055
-0.045,-0.055
-0.045,-0.055
-0.045,-0.055
-0.035,-0.065
-0.005,-0.055
0.325,-0.075
0.825,-0.055
0.575,-0.205
-0.065,-0.465
-0.215,-0.245
-0.185,0.065
-0.155,-0.005
-0.145,-0.015
-0.085,-0.015
-0.075,-0.005
-0.075,-0.035
-0.065,-0.045
-0.075,-0.055
-0.075,-0.065
-0.065,-0.065
-0.075,-0.065
-0.065,-0.065
-0.065,-0.055
-0.065,-0.065
-0.065,-0.065
-0.065,-0.065
-0.065,-0.055
-0.065,-0.065
-0.075,-0.065
-0.065,-0.065
-0.065,-0.055
-0.065,-0.055
-0.055,-0.055
-0.055,-0.055
-0.045,-0.045
-0.035,-0.055
-0.025,-0.055
-0.015,-0.055
-0.005,-0.055
0.015,-0.055
0.035,-0.055
0.035,-0.055
0.025,-0.055
0.015,-0.085
-0.005,-0.075
-0.015,-0.085
-0.035,-0.075
-0.045,-0.085
-0.045,-0.075
-0.055,-0.075
-0.055,-0.065
-0.065,-0.065
-0.065,-0.065
-0.055,-0.065
-0.065,-0.065
-0.065,-0.065
-0.055,-0.055
-0.065,-0.065
-0.065,-0.065
-0.065,-0.075
-0.055,-0.055
-0.065,-0.055
-0.065,-0.055
-0.065,-0.055
-0.055,-0.065
-0.055,-0.065
-0.045,-0.065
-0.025,-0.085
-0.035,-0.065
-0.035,-0.065
-0.055,-0.065
-0.045,-0.075
-0.045,-0.045
-0.055,-0.065
-0.065,-0.065
-0.065,-0.055
-0.065,-0.055
-0.065,-0.045
-0.065,-0.055
-0.055,-0.065
-0.045,-0.055
-0.005,-0.055
0.315,-0.075
0.805,-0.065
0.475,-0.225
-0.135,-0.455
-0.225,-0.205
-0.185,0.055
-0.165,-0.005
-0.135,-0.015
-0.095,-0.015
-0.085,-0.015
-0.085,-0.035
-0.085,-0.045
-0.085,-0.055
-0.075,-0.065
-0.075,-0.065
-0.075,-0.055
-0.085,-0.065
-0.085,-0.065
-0.085,-0.065
-0.075,-0.055
-0.085,-0.065
-0.085,-0.065
-0.065,-0.065
-0.075,-0.065
-0.075,-0.065
-0.075,-0.065
-0.065,-0.055
-0.065,-0.055
-0.065,-0.055
-0.055,-0.055
-0.035,-0.055
-0.035,-0.045
-0.025,-0.055
-0.005,-0.055
0.015,-0.055
0.035,-0.055
0.035,-0.055
0.025,-0.065
0.015,-0.075
-0.015,-0.085
-0.025,-0.075
-0.035,-0.085
-0.045,-0.075
-0.055,-0.065
-0.065,-0.065
-0.065,-0.075
-0.065,-0.065
-0.065,-0.065
-0.065,-0.055
-0.065,-0.065
-0.065,-0.065
-0.065,-0.055
-0.075,-0.065
-0.065,-0.055
-0.065,-0.065
-0.075,-0.065
-0.075,-0.055
-0.065,-0.055
-0.065,-0.065
-0.065,-0.065
-0.065,-0.075
-0.055,-0.075
-0.035,-0.075
-0.035,-0.065
-0.045,-0.065
-0.045,-0.065
-0.055,-0.065
-0.055,-0.055
-0.065,-0.055
-0.065,-0.065
-0.065,-0.065
-0.075,-0.055
-0.075,-0.045
-0.075,-0.045
-0.055,-0.055
-0.055,-0.055
-0.045,-0.055
0.175,-0.065
0.685,-0.055
0.635,-0.165
-0.005,-0.395
-0.215,-0.285
-0.195,0.035
-0.175,0.005
-0.155,-0.005
-0.115,-0.025
-0.085,-0.005
-0.085,-0.015
-0.085,-0.035
-0.085,-0.055
-0.075,-0.055
-0.085,-0.055
-0.085,-0.055
-0.085,-0.065
-0.075,-0.065
-0.075,-0.065
-0.075,-0.055
-0.075,-0.065
-0.075,-0.055
-0.075,-0.055
-0.075,-0.065
-0.065,-0.065
-0.055,-0.055
-0.065,-0.065
-0.065,-0.055
-0.055,-0.055
-0.045,-0.045
-0.035,-0.045
-0.035,-0.045
-0.015,-0.055
-0.005,-0.045
0.015,-0.055
0.025,-0.055
0.025,-0.065
0.015,-0.065
-0.005,-0.075
-0.015,-0.075
-0.035,-0.085
-0.045,-0.075
-0.055,-0.075
-0.065,-0.065
-0.075,-0.075
-0.065,-0.065
-0.065,-0.055
-0.065,-0.065
-0.065,-0.065
-0.065,-0.065
-0.065,-0.055
-0.075,-0.065
-0.075,-0.065
-0.065,-0.055
-0.075,-0.045
-0.075,-0.065
-0.065,-0.065
-0.065,-0.055
-0.065,-0.055
-0.065,-0.065
-0.065,-0.075
-0.055,-0.085
-0.045,-0.075
-0.055,-0.065
-0.055,-0.075
-0.045,-0.065
-0.055,-0.075
-0.065,-0.055
-0.065,-0.065
-0.075,-0.075
-0.075,-0.065
-0.075,-0.055
-0.065,-0.055
-0.065,-0.055
-0.065,-0.055
-0.065,-0.055
-0.035,-0.065
0.185,-0.065
0.655,-0.055
0.565,-0.165
-0.075,-0.415
-0.205,-0.295
-0.195,0.025
-0.165,-0.015
-0.155,-0.015
-0.115,-0.035
-0.095,-0.025
-0.085,-0.025
-0.095,-0.055
-0.085,-0.065
-0.085,-0.065
-0.095,-0.065
-0.085,-0.075
-0.085,-0.055
-0.085,-0.065
-0.085,-0.075
-0.085,-0.075
-0.075,-0.065
-0.075,-0.065
-0.085,-0.055
-0.075,-0.065
-0.085,-0.055
-0.075,-0.065
-0.075,-0.055
-0.075,-0.065
-0.065,-0.055
-0.065,-0.055
-0.065,-0.055
-0.045,-0.055
-0.045,-0.055
-0.025,-0.045
-0.015,-0.055
0.005,-0.055
0.015,-0.055
0.005,-0.065
-0.015,-0.085
-0.025,-0.095
-0.045,-0.095
-0.055,-0.095
-0.065,-0.085
-0.075,-0.095
-0.065,-0.085
-0.075,-0.085
-0.075,-0.095
-0.075,-0.085
-0.075,-0.085
-0.075,-0.085
-0.075,-0.085
-0.075,-0.085
-0.075,-0.085
-0.075,-0.085
-0.075,-0.085
-0.075,-0.085
-0.075,-0.085
-0.075,-0.085
-0.075,-0.085
-0.065,-0.095
-0.055,-0.095
-0.055,-0.105
-0.055,-0.095
-0.055,-0.085
-0.055,-0.085
-0.055,-0.085
-0.075,-0.095
-0.075,-0.075
-0.065,-0.085
-0.075,-0.095
-0.085,-0.095
-0.085,-0.085
-0.075,-0.085
-0.085,-0.085
-0.075,-0.085
-0.075,-0.085
-0.045,-0.095
0.245,-0.095
0.735,-0.085
0.595,-0.215
-0.045,-0.485
-0.225,-0.335
-0.205,-0.005
-0.185,-0.035
-0.165,-0.045
-0.125,-0.055
-0.105,-0.045
-0.095,-0.055
-0.105,-0.085
-0.095,-0.095
-0.105,-0.085
-0.105,-0.095
-0.095,-0.095
-0.095,-0.095
-0.105,-0.095
-0.095,-0.095
-0.105,-0.095
-0.095,-0.095
-0.095,-0.095
-0.105,-0.095
-0.095,-0.095
-0.095,-0.085
-0.095,-0.095
-0.095,-0.095
-0.095,-0.085
-0.095,-0.085
-0.085,-0.075
-0.075,-0.085
-0.065,-0.085
-0.045,-0.075
-0.045,-0.075
-0.025,-0.085
-0.015,-0.085
-0.005,-0.085
-0.005,-0.095
-0.015,-0.115
-0.025,-0.115
-0.045,-0.115
-0.055,-0.115
-0.065,-0.125
-0.075,-0.115
-0.075,-0.115
-0.085,-0.115
-0.085,-0.105
-0.085,-0.105
-0.095,-0.105
-0.095,-0.105
-0.095,-0.115
-0.095,-0.105
-0.095,-0.105
-0.095,-0.105
-0.095,-0.115
-0.085,-0.105
-0.095,-0.105
-0.095,-0.105
-0.085,-0.105
-0.085,-0.125
-0.085,-0.125
-0.065,-0.125
-0.075,-0.115
-0.065,-0.105
-0.075,-0.105
-0.085,-0.115
-0.085,-0.115
-0.085,-0.105
-0.095,-0.115
-0.105,-0.115
-0.095,-0.095
-0.095,-0.095
-0.105,-0.095
-0.095,-0.095
-0.095,-0.105
-0.075,-0.105
0.135,-0.105
0.655,-0.095
0.695,-0.175
0.055,-0.455
-0.255,-0.435
-0.245,-0.075
-0.215,-0.015
-0.185,-0.045
-0.145,-0.055
-0.135,-0.055
-0.115,-0.065
-0.115,-0.085
-0.125,-0.095
-0.125,-0.095
-0.125,-0.105
-0.115,-0.105
-0.125,-0.095
-0.125,-0.105
-0.115,-0.105
-0.115,-0.105
-0.115,-0.105
-0.115,-0.095
-0.115,-0.105
-0.115,-0.105
-0.115,-0.095
-0.115,-0.095
-0.115,-0.105
-0.105,-0.095
-0.105,-0.095
-0.105,-0.095
-0.095,-0.095
-0.095,-0.085
-0.075,-0.085
-0.065,-0.075
-0.055,-0.085
-0.025,-0.085
-0.015,-0.085
-0.025,-0.105
-0.025,-0.115
-0.045,-0.105
-0.065,-0.115
-0.075,-0.115
-0.085,-0.115
-0.095,-0.115
-0.095,-0.105
-0.105,-0.115
-0.105,-0.105
-0.105,-0.095
-0.105,-0.105
-0.105,-0.105
-0.115,-0.105
-0.105,-0.095
-0.115,-0.095
-0.115,-0.105
-0.105,-0.095
-0.105,-0.105
-0.115,-0.095
-0.105,-0.095
-0.105,-0.105
-0.095,-0.105
-0.095,-0.105
-0.095,-0.115
-0.085,-0.125
-0.085,-0.115
-0.085,-0.105
-0.095,-0.105
-0.095,-0.105
-0.085,-0.105
-0.105,-0.085
-0.105,-0.105
-0.105,-0.105
-0.105,-0.095
-0.105,-0.085
-0.115,-0.095
-0.095,-0.085
-0.095,-0.085
-0.095,-0.095
0.075,-0.095
0.635,-0.095
0.745,-0.145
0.105,-0.455
-0.275,-0.415
-0.245,-0.035
-0.205,-0.015
-0.185,-0.025
-0.145,-0.045
-0.125,-0.045
-0.115,-0.065
-0.115,-0.075
-0.115,-0.095
-0.115,-0.095
-0.105,-0.095
-0.115,-0.095
-0.115,-0.095
-0.115,-0.095
-0.105,-0.095
-0.115,-0.095
-0.115,-0.095
-0.115,-0.095
-0.105,-0.095
-0.115,-0.095
-0.115,-0.085
-0.115,-0.095
-0.115,-0.085
-0.105,-0.085
-0.095,-0.075
-0.095,-0.085
-0.085,-0.085
-0.075,-0.075
-0.075,-0.075
-0.055,-0.085
-0.035,-0.075
-0.015,-0.065
-0.015,-0.085
-0.015,-0.095
-0.025,-0.095
-0.045,-0.095
-0.055,-0.105
-0.075,-0.105
-0.075,-0.105
-0.085,-0.095
-0.095,-0.085
-0.095,-0.095
-0.095,-0.085
-0.095,-0.085
-0.095,-0.085
-0.095,-0.085
-0.095,-0.095
-0.095,-0.085
-0.105,-0.085
-0.095,-0.085
-0.095,-0.085
-0.095,-0.085
-0.095,-0.075
-0.095,-0.085
-0.085,-0.085
-0.085,-0.085
-0.085,-0.085
-0.075,-0.095
-0.065,-0.105
-0.055,-0.095
-0.065,-0.085
-0.065,-0.095
-0.065,-0.085
-0.075,-0.085
-0.085,-0.075
-0.085,-0.085
-0.085,-0.085
-0.095,-0.075
-0.095,-0.075
-0.085,-0.075
-0.085,-0.075
-0.075,-0.075
-0.085,-0.075
-0.015,-0.085
0.375,-0.085
0.795,-0.085
0.415,-0.285
-0.195,-0.475
-0.245,-0.195
-0.215,0.045
-0.185,-0.015
-0.155,-0.025
-0.115,-0.025
-0.105,-0.025
-0.105,-0.045
-0.105,-0.075
-0.105,-0.075
-0.105,-0.065
-0.105,-0.075
-0.105,-0.075
-0.095,-0.085
-0.095,-0.075
-0.105,-0.075
-0.095,-0.075
-0.105,-0.075
-0.095,-0.065
-0.095,-0.065
-0.095,-0.085
-0.095,-0.065
-0.095,-0.065
-0.095,-0.055
-0.085,-0.065
-0.075,-0.055
-0.075,-0.055
-0.055,-0.055
-0.045,-0.035
-0.035,-0.055
-0.015,-0.065
-0.005,-0.065
0.005,-0.075
0.005,-0.065
-0.015,-0.075
-0.025,-0.095
-0.035,-0.095
-0.055,-0.085
-0.075,-0.085
-0.075,-0.085
-0.075,-0.075
-0.085,-0.075
-0.085,-0.075
-0.085,-0.065
-0.085,-0.065
-0.085,-0.065
-0.085,-0.055
-0.095,-0.065
-0.085,-0.065
-0.095,-0.055
-0.085,-0.065
-0.095,-0.065
-0.085,-0.065
-0.075,-0.065
-0.085,-0.075
-0.085,-0.075
-0.085,-0.065
-0.075,-0.065
-0.075,-0.075
-0.065,-0.085
-0.055,-0.065
-0.055,-0.065
-0.065,-0.075
-0.075,-0.075
-0.075,-0.075
-0.085,-0.055
-0.095,-0.075
-0.095,-0.065
-0.095,-0.055
-0.085,-0.055
-0.085,-0.055
-0.085,-0.065
-0.075,-0.055
-0.065,-0.065
0.105,-0.065
0.595,-0.055
0.745,-0.115
0.125,-0.385
-0.245,-0.395
-0.235,-0.045
-0.205,0.025
-0.185,-0.005
-0.145,-0.015
-0.105,-0.005
-0.105,-0.015
-0.105,-0.045
-0.105,-0.055
-0.105,-0.055
-0.105,-0.065
-0.105,-0.075
-0.105,-0.055
-0.105,-0.065
-0.105,-0.065
-0.105,-0.065
-0.105,-0.075
-0.105,-0.055
-0.085,-0.065
-0.095,-0.065
-0.085,-0.065
-0.095,-0.065
-0.085,-0.065
-0.085,-0.065
-0.085,-0.055
-0.075,-0.055
-0.065,-0.055
-0.055,-0.055
-0.045,-0.055
-0.035,-0.055
-0.015,-0.065
0.005,-0.065
0.015,-0.065
0.005,-0.065
-0.015,-0.085
-0.035,-0.075
-0.055,-0.085
-0.065,-0.075
-0.075,-0.075
-0.085,-0.065
-0.085,-0.065
-0.085,-0.055
-0.095,-0.065
-0.085,-0.055
-0.095,-0.055
-0.085,-0.055
-0.085,-0.065
-0.085,-0.055
-0.085,-0.055
-0.095,-0.055
-0.095,-0.055
-0.085,-0.055
-0.095,-0.055
-0.095,-0.045
-0.095,-0.055
-0.085,-0.055
-0.085,-0.055
-0.085,-0.065
-0.065,-0.075
-0.055,-0.065
-0.065,-0.055
-0.075,-0.065
-0.075,-0.065
-0.075,-0.065
-0.085,-0.045
-0.085,-0.055
-0.095,-0.065
-0.105,-0.055
-0.095,-0.045
-0.095,-0.045
-0.085,-0.055
-0.075,-0.055
-0.085,-0.055
-0.015,-0.055
0.315,-0.065
0.715,-0.075
0.445,-0.225
-0.155,-0.415
-0.225,-0.215
-0.195,0.045
-0.195,-0.015
-0.175,-0.005
-0.135,-0.025
-0.105,-0.015
-0.105,-0.025
-0.105,-0.045
-0.105,-0.055
-0.105,-0.065
-0.105,-0.055
-0.115,-0.055
-0.105,-0.055
-0.105,-0.055
-0.095,-0.055
-0.095,-0.065
-0.095,-0.055
-0.085,-0.065
-0.095,-0.055
-0.095,-0.055
-0.085,-0.055
-0.085,-0.055
-0.085,-0.055
-0.085,-0.055
-0.075,-0.055
-0.065,-0.035
-0.065,-0.045
-0.055,-0.045
-0.035,-0.045
-0.025,-0.045
-0.015,-0.045
-0.005,-0.045
0.005,-0.055
-0.005,-0.055
-0.025,-0.075
-0.035,-0.075
-0.045,-0.075
-0.065,-0.075
-0.075,-0.075
-0.085,-0.075
-0.085,-0.055
-0.085,-0.065
-0.085,-0.055
-0.085,-0.055
-0.085,-0.065
-0.095,-0.065
-0.085,-0.065
-0.095,-0.045
-0.095,-0.065
-0.085,-0.065
-0.085,-0.065
-0.095,-0.055
-0.095,-0.075
-0.085,-0.065
-0.095,-0.055
-0.085,-0.065
-0.085,-0.075
-0.075,-0.075
-0.065,-0.075
-0.055,-0.075
-0.075,-0.075
-0.065,-0.065
-0.075,-0.075
-0.075,-0.075
-0.085,-0.055
-0.075,-0.065
-0.085,-0.065
-0.095,-0.065
-0.095,-0.055
-0.085,-0.055
-0.085,-0.055
-0.085,-0.055
-0.075,-0.065
-0.025,-0.075
0.305,-0.065
0.715,-0.065
0.405,-0.245
-0.165,-0.445
-0.225,-0.185
-0.195,0.025
-0.185,-0.015
-0.155,-0.025
-0.115,-0.025
-0.095,-0.025
-0.105,-0.055
-0.095,-0.065
-0.095,-0.065
-0.085,-0.065
-0.085,-0.075
-0.085,-0.065
-0.095,-0.075
-0.095,-0.075
-0.085,-0.075
-0.095,-0.075
-0.085,-0.075
-0.085,-0.065
-0.085,-0.075
-0.075,-0.075
-0.085,-0.075
-0.085,-0.065
-0.085,-0.065
-0.075,-0.065
-0.075,-0.065
-0.065,-0.065
-0.065,-0.065
-0.045,-0.065
-0.035,-0.055
-0.025,-0.055
-0.005,-0.065
0.015,-0.065
0.005,-0.065
0.005,-0.085
-0.015,-0.095
-0.015,-0.095
-0.045,-0.105
-0.055,-0.095
-0.065,-0.095
-0.065,-0.095
-0.065,-0.095
-0.065,-0.085
-0.075,-0.085
-0.065,-0.085
-0.065,-0.075
-0.075,-0.085
-0.065,-0.085
-0.065,-0.085
-0.075,-0.075
-0.075,-0.085
-0.075,-0.095
-0.065,-0.075
-0.065,-0.085
-0.075,-0.085
-0.065,-0.085
-0.065,-0.085
-0.055,-0.095
-0.065,-0.095
-0.045,-0.105
-0.035,-0.085
-0.055,-0.085
-0.055,-0.085
-0.055,-0.095
-0.055,-0.085
-0.065,-0.075
-0.075,-0.095
-0.075,-0.085
-0.065,-0.085
-0.075,-0.075
-0.065,-0.085
-0.065,-0.085
-0.065,-0.085
-0.055,-0.085
0.175,-0.095
0.695,-0.085
0.675,-0.175
0.035,-0.445
-0.215,-0.355
-0.195,-0.015
-0.165,-0.025
-0.145,-0.035
-0.105,-0.045
-0.085,-0.045
-0.075,-0.055
-0.075,-0.065
-0.085,-0.075
-0.075,-0.085
-0.075,-0.075
-0.075,-0.075
-0.075,-0.075
-0.075,-0.075
-0.065,-0.085
-0.075,-0.075
-0.075,-0.085
-0.065,-0.085
-0.065,-0.075
-0.065,-0.075
-0.065,-0.075
-0.065,-0.075
-0.055,-0.065
-0.065,-0.065
-0.055,-0.065
-0.055,-0.075
-0.045,-0.065
-0.045,-0.065
-0.025,-0.065
-0.005,-0.055
0.015,-0.065
0.025,-0.065
0.035,-0.065
0.025,-0.075
0.025,-0.085
0.015,-0.095
-0.005,-0.095
-0.015,-0.105
-0.025,-0.095
-0.045,-0.095
-0.045,-0.095
-0.045,-0.085
-0.045,-0.085
-0.045,-0.085
-0.055,-0.085
-0.045,-0.085
-0.045,-0.085
-0.045,-0.085
-0.055,-0.085
-0.055,-0.085
-0.045,-0.085
-0.055,-0.075
-0.055,-0.085
-0.045,-0.075
-0.045,-0.085
-0.045,-0.085
-0.035,-0.095
-0.035,-0.095
-0.015,-0.095
-0.025,-0.085
-0.025,-0.085
-0.035,-0.085
-0.025,-0.075
-0.035,-0.065
-0.045,-0.075
-0.055,-0.085
-0.055,-0.075
-0.055,-0.065
-0.045,-0.065
-0.045,-0.065
-0.035,-0.065
-0.035,-0.075
-0.025,-0.075
0.225,-0.085
0.735,-0.065
0.745,-0.165
0.105,-0.445
-0.205,-0.375
-0.185,-0.015
-0.155,-0.005
-0.135,-0.025
-0.085,-0.035
-0.065,-0.025
-0.065,-0.035
-0.065,-0.055
-0.075,-0.065
-0.055,-0.075
-0.065,-0.075
-0.065,-0.065
-0.065,-0.075
-0.065,-0.075
-0.075,-0.075
-0.065,-0.065
-0.065,-0.075
-0.055,-0.065
-0.055,-0.075
-0.065,-0.075
-0.065,-0.075
-0.055,-0.065
-0.055,-0.075
-0.055,-0.065
-0.055,-0.065
-0.045,-0.055
-0.035,-0.065
-0.025,-0.055
-0.015,-0.055
-0.005,-0.055
0.015,-0.055
0.025,-0.055
0.035,-0.055
0.035,-0.065
0.015,-0.075
0.005,-0.085
-0.005,-0.085
-0.025,-0.085
-0.035,-0.075
-0.035,-0.085
-0.045,-0.085
-0.035,-0.075
-0.045,-0.065
-0.055,-0.065
-0.055,-0.075
-0.055,-0.075
-0.055,-0.075
-0.055,-0.065
-0.055,-0.065
-0.045,-0.065
-0.055,-0.075
-0.055,-0.075
-0.055,-0.075
-0.045,-0.075
-0.055,-0.075
-0.045,-0.075
-0.035,-0.085
-0.025,-0.085
-0.025,-0.095
-0.025,-0.075
-0.025,-0.075
-0.035,-0.075
-0.035,-0.085
-0.045,-0.065
-0.045,-0.075
-0.055,-0.085
-0.055,-0.075
-0.055,-0.065
-0.045,-0.065
-0.055,-0.065
-0.035,-0.075
-0.045,-0.075
0.025,-0.075
0.445,-0.075
0.865,-0.075
0.475,-0.275
-0.155,-0.495
-0.215,-0.215
-0.185,0.055
-0.155,-0.005
-0.125,-0.025
-0.075,-0.025
-0.075,-0.025
-0.075,-0.035
-0.075,-0.065
-0.075,-0.065
-0.075,-0.075
-0.075,-0.065
-0.065,-0.075
-0.065,-0.085
-0.075,-0.075
-0.065,-0.075
-0.075,-0.075
-0.065,-0.075
-0.065,-0.075
-0.065,-0.075
-0.065,-0.075
-0.065,-0.085
-0.065,-0.065
-0.075,-0.065
-0.065,-0.065
-0.055,-0.065
-0.045,-0.055
-0.045,-0.065
-0.035,-0.065
-0.015,-0.065
-0.005,-0.055
0.015,-0.055
0.025,-0.055
0.025,-0.065
0.025,-0.065
0.015,-0.075
-0.015,-0.085
-0.015,-0.095
-0.035,-0.085
-0.045,-0.085
-0.055,-0.085
-0.065,-0.075
-0.065,-0.075
-0.065,-0.085
-0.065,-0.085
-0.065,-0.075
-0.065,-0.075
-0.065,-0.065
-0.065,-0.075
-0.065,-0.075
-0.065,-0.065
-0.075,-0.065
-0.065,-0.075
-0.055,-0.065
-0.065,-0.075
-0.065,-0.075
-0.055,-0.075
-0.055,-0.075
-0.055,-0.085
-0.045,-0.085
-0.035,-0.085
-0.045,-0.075
-0.055,-0.065
-0.065,-0.085
-0.055,-0.075
-0.065,-0.055
-0.075,-0.075
-0.075,-0.065
-0.075,-0.075
-0.065,-0.055
-0.075,-0.065
-0.065,-0.065
-0.065,-0.065
-0.065,-0.075
0.045,-0.065
0.495,-0.055
0.825,-0.095
0.305,-0.325
-0.225,-0.455
-0.225,-0.115
-0.195,0.045
-0.175,-0.015
-0.135,-0.015
-0.105,-0.015
-0.095,-0.025
-0.085,-0.045
-0.085,-0.065
-0.095,-0.075
-0.085,-0.075
-0.085,-0.075
-0.095,-0.075
-0.085,-0.065
-0.085,-0.065
-0.075,-0.075
-0.085,-0.065
-0.085,-0.075
-0.075,-0.075
-0.075,-0.075
-0.075,-0.075
-0.075,-0.065
-0.075,-0.065
-0.065,-0.065
-0.065,-0.055
-0.065,-0.055
-0.055,-0.055
-0.045,-0.055
-0.035,-0.055
-0.025,-0.055
0.005,-0.065
0.025,-0.055
0.025,-0.055
0.015,-0.065
0.005,-0.075
-0.015,-0.085
-0.035,-0.075
-0.045,-0.085
-0.055,-0.085
-0.055,-0.085
-0.075,-0.075
-0.075,-0.065
-0.075,-0.065
-0.075,-0.065
-0.075,-0.065
-0.075,-0.065
-0.075,-0.065
-0.065,-0.055
-0.075,-0.055
-0.075,-0.065
-0.075,-0.065
-0.075,-0.055
-0.075,-0.065
-0.075,-0.055
-0.085,-0.065
-0.075,-0.065
-0.075,-0.065
-0.065,-0.075
-0.065,-0.075
-0.045,-0.075
-0.045,-0.075
-0.055,-0.065
-0.055,-0.075
-0.055,-0.065
-0.065,-0.065
-0.065,-0.055
-0.075,-0.075
-0.075,-0.065
-0.075,-0.055
-0.075,-0.055
-0.065,-0.055
-0.065,-0.055
-0.065,-0.065
-0.035,-0.055
0.235,-0.075
0.745,-0.055
0.615,-0.165
-0.025,-0.415
-0.225,-0.285
-0.195,0.025
-0.175,0.015
-0.165,-0.005
-0.125,-0.025
-0.095,-0.015
-0.095,-0.015
-0.095,-0.035
-0.085,-0.065
-0.085,-0.055
-0.085,-0.055
-0.085,-0.055
-0.085,-0.065
-0.085,-0.065
-0.085,-0.065
-0.085,-0.055
-0.085,-0.065
-0.065,-0.055
-0.075,-0.065
-0.075,-0.065
-0.075,-0.065
-0.075,-0.065
-0.075,-0.065
-0.065,-0.055
-0.065,-0.065
-0.055,-0.065
-0.055,-0.055
-0.045,-0.045
-0.035,-0.045
-0.015,-0.055
0.005,-0.045
0.015,-0.055
0.025,-0.065
0.025,-0.065
0.005,-0.065
-0.015,-0.075
-0.035,-0.085
-0.045,-0.075
-0.055,-0.075
-0.065,-0.065
-0.075,-0.075
-0.065,-0.065
-0.075,-0.065
-0.075,-0.065
-0.075,-0.065
-0.075,-0.055
-0.075,-0.065
-0.085,-0.055
-0.075,-0.065
-0.065,-0.055
-0.085,-0.055
-0.085,-0.065
-0.085,-0.065
-0.085,-0.055
-0.075,-0.055
-0.075,-0.065
-0.085,-0.065
-0.065,-0.065
-0.075,-0.075
-0.065,-0.075
-0.045,-0.075
-0.055,-0.065
-0.065,-0.065
-0.065,-0.065
-0.065,-0.065
-0.065,-0.045
-0.075,-0.065
-0.085,-0.065
-0.075,-0.065
-0.085,-0.055
-0.085,-0.055
-0.075,-0.055
-0.075,-0.055
-0.065,-0.055
-0.005,-0.065
0.315,-0.065
0.705,-0.075
0.425,-0.225
-0.155,-0.415
-0.215,-0.225
-0.185,0.005
-0.165,-0.025
-0.155,-0.025
-0.115,-0.025
-0.095,-0.035
-0.085,-0.035
-0.085,-0.055
-0.085,-0.065
-0.085,-0.075
-0.085,-0.075
-0.095,-0.075
-0.085,-0.065
-0.085,-0.065
-0.085,-0.075
-0.075,-0.075
-0.085,-0.075
-0.085,-0.075
-0.075,-0.075
-0.085,-0.065
-0.075,-0.075
-0.075,-0.075
-0.075,-0.075
-0.075,-0.075
-0.075,-0.075
-0.065,-0.065
-0.055,-0.055
-0.045,-0.065
-0.025,-0.065
-0.025,-0.055
0.005,-0.055
0.005,-0.065
0.005,-0.075
-0.005,-0.095
-0.015,-0.095
-0.035,-0.095
-0.055,-0.095
-0.065,-0.095
-0.065,-0.095
-0.065,-0.095
-0.085,-0.085
-0.075,-0.085
-0.085,-0.095
-0.085,-0.075
-0.075,-0.085
-0.075,-0.085
-0.075,-0.085
-0.075,-0.085
-0.085,-0.085
-0.075,-0.085
-0.075,-0.085
-0.075,-0.085
-0.085,-0.085
-0.085,-0.095
-0.075,-0.085
-0.075,-0.085
-0.075,-0.095
-0.065,-0.115
-0.055,-0.095
-0.045,-0.105
-0.055,-0.095
-0.055,-0.095
-0.055,-0.105
-0.065,-0.095
-0.065,-0.085
-0.075,-0.095
-0.075,-0.095
-0.085,-0.095
-0.075,-0.075
-0.075,-0.085
-0.075,-0.085
-0.075,-0.095
-0.085,-0.095
-0.005,-0.085
0.385,-0.085
0.745,-0.105
0.305,-0.295
-0.195,-0.485
-0.215,-0.205
-0.185,-0.005
-0.175,-0.045
-0.155,-0.055
-0.115,-0.055
-0.095,-0.055
-0.095,-0.065
-0.095,-0.085
-0.095,-0.105
-0.095,-0.105
-0.095,-0.105
-0.105,-0.105
-0.095,-0.095
-0.095,-0.095
-0.095,-0.105
-0.095,-0.105
-0.095,-0.105
-0.095,-0.105
-0.095,-0.105
-0.095,-0.105
-0.085,-0.095
-0.095,-0.095
-0.095,-0.095
-0.085,-0.095
-0.085,-0.095
-0.075,-0.085
-0.075,-0.085
-0.065,-0.095
-0.045,-0.085
-0.035,-0.085
-0.025,-0.085
-0.005,-0.095
0.005,-0.095
-0.005,-0.105
-0.025,-0.115
-0.035,-0.125
-0.035,-0.125
-0.055,-0.125
-0.065,-0.125
-0.075,-0.125
-0.075,-0.125
-0.085,-0.125
-0.085,-0.115
-0.085,-0.115
-0.085,-0.115
-0.085,-0.115
-0.095,-0.105
-0.085,-0.115
-0.085,-0.115
-0.085,-0.115
-0.095,-0.115
-0.085,-0.105
-0.085,-0.105
-0.085,-0.115
-0.095,-0.115
-0.095,-0.115
-0.095,-0.115
-0.085,-0.115
-0.065,-0.125
-0.075,-0.115
-0.075,-0.115
-0.085,-0.105
-0.095,-0.115
-0.095,-0.115
-0.095,-0.105
-0.105,-0.115
-0.105,-0.105
-0.105,-0.105
-0.095,-0.105
-0.105,-0.105
-0.095,-0.105
-0.095,-0.105
-0.085,-0.105
0.155,-0.105
0.685,-0.095
0.635,-0.205
-0.005,-0.495
-0.255,-0.375
-0.235,-0.025
-0.205,-0.035
-0.185,-0.045
-0.135,-0.055
-0.125,-0.055
-0.135,-0.075
-0.115,-0.085
-0.135,-0.095
-0.125,-0.105
-0.125,-0.105
-0.125,-0.095
-0.125,-0.095
-0.135,-0.105
-0.125,-0.105
-0.115,-0.105
-0.125,-0.105
-0.135,-0.105
-0.125,-0.105
-0.125,-0.095
-0.125,-0.095
-0.125,-0.105
-0.125,-0.105
-0.115,-0.095
-0.115,-0.095
-0.115,-0.085
-0.105,-0.095
-0.095,-0.085
-0.085,-0.085
-0.075,-0.085
-0.055,-0.085
-0.045,-0.085
-0.035,-0.095
-0.035,-0.095
-0.045,-0.115
-0.055,-0.115
-0.075,-0.125
-0.085,-0.115
-0.095,-0.125
-0.095,-0.115
-0.115,-0.105
-0.125,-0.115
-0.115,-0.115
-0.115,-0.105
-0.115,-0.105
-0.115,-0.105
-0.115,-0.105
-0.115,-0.105
-0.115,-0.105
-0.125,-0.115
-0.125,-0.105
-0.115,-0.095
-0.125,-0.095
-0.115,-0.095
-0.115,-0.105
-0.105,-0.105
-0.115,-0.105
-0.105,-0.115
-0.085,-0.115
-0.085,-0.105
-0.095,-0.105
-0.095,-0.105
-0.105,-0.115
-0.095,-0.095
-0.115,-0.095
-0.115,-0.105
-0.115,-0.105
-0.125,-0.095
-0.115,-0.085
-0.115,-0.095
-0.105,-0.095
-0.115,-0.095
-0.045,-0.095
0.245,-0.105
0.785,-0.105
0.575,-0.225
-0.065,-0.525
-0.285,-0.335
-0.255,0.005
-0.215,-0.025
-0.195,-0.045
-0.155,-0.045
-0.135,-0.045
-0.145,-0.065
-0.135,-0.085
-0.135,-0.095
-0.135,-0.095
-0.125,-0.095
-0.135,-0.085
-0.125,-0.095
-0.135,-0.095
-0.135,-0.105
-0.135,-0.095
-0.135,-0.085
-0.135,-0.095
-0.125,-0.095
-0.135,-0.095
-0.125,-0.085
-0.135,-0.095
-0.125,-0.085
-0.125,-0.085
-0.115,-0.085
-0.105,-0.085
-0.095,-0.085
-0.095,-0.075
-0.085,-0.065
-0.065,-0.075
-0.045,-0.065
-0.025,-0.075
-0.025,-0.075
-0.025,-0.095
-0.045,-0.095
-0.065,-0.095
-0.075,-0.095
-0.085,-0.105
-0.095,-0.095
-0.095,-0.095
-0.105,-0.095
-0.105,-0.085
-0.105,-0.095
-0.105,-0.085
-0.105,-0.085
-0.105,-0.095
-0.105,-0.085
-0.105,-0.085
-0.115,-0.085
-0.115,-0.085
-0.095,-0.095
-0.105,-0.085
-0.105,-0.085
-0.105,-0.085
-0.105,-0.075
-0.105,-0.085
-0.095,-0.085
-0.095,-0.095
-0.065,-0.105
-0.075,-0.085
-0.085,-0.095
-0.085,-0.095
-0.095,-0.085
-0.095,-0.075
-0.105,-0.075
-0.105,-0.085
-0.105,-0.085
-0.115,-0.075
-0.105,-0.075
-0.105,-0.075
-0.095,-0.075
-0.105,-0.075
-0.075,-0.075
0.185,-0.085
0.695,-0.065
0.665,-0.165
0.025,-0.445
-0.265,-0.375
-0.245,-0.015
-0.215,0.015
-0.195,-0.015
-0.145,-0.035
-0.115,-0.025
-0.125,-0.045
-0.115,-0.055
-0.125,-0.065
-0.115,-0.075
-0.115,-0.075
-0.115,-0.075
-0.115,-0.085
-0.105,-0.075
-0.115,-0.065
-0.125,-0.065
-0.115,-0.085
-0.115,-0.075
-0.115,-0.075
-0.115,-0.075
-0.105,-0.075
-0.105,-0.075
-0.105,-0.075
-0.105,-0.065
-0.095,-0.065
-0.095,-0.065
-0.085,-0.065
-0.075,-0.055
-0.055,-0.055
-0.045,-0.055
-0.025,-0.065
-0.015,-0.065
-0.005,-0.065
-0.005,-0.065
-0.025,-0.075
-0.045,-0.085
-0.055,-0.095
-0.055,-0.085
-0.075,-0.085
-0.095,-0.075
-0.095,-0.075
-0.095,-0.075
-0.095,-0.075
-0.095,-0.075
-0.105,-0.075
-0.095,-0.075
-0.095,-0.075
-0.095,-0.065
-0.095,-0.055
-0.095,-0.075
-0.095,-0.075
-0.095,-0.075
-0.095,-0.065
-0.095,-0.065
-0.095,-0.065
-0.095,-0.055
-0.095,-0.065
-0.085,-0.085
-0.075,-0.085
-0.055,-0.075
-0.075,-0.085
-0.065,-0.075
-0.075,-0.065
-0.085,-0.075
-0.075,-0.065
-0.085,-0.065
-0.095,-0.075
-0.095,-0.065
-0.095,-0.055
-0.095,-0.055
-0.085,-0.055
-0.085,-0.065
-0.085,-0.065
-0.055,-0.065
0.235,-0.075
0.735,-0.055
0.555,-0.185
-0.085,-0.455
-0.245,-0.265
-0.225,0.055
-0.195,-0.005
-0.175,-0.015
-0.125,-0.025
-0.115,-0.015
-0.115,-0.035
-0.115,-0.055
-0.115,-0.055
-0.115,-0.065
-0.115,-0.065
-0.105,-0.065
-0.115,-0.065
-0.105,-0.065
-0.115,-0.075
-0.105,-0.065
-0.115,-0.075
-0.115,-0.085
-0.115,-0.075
-0.105,-0.065
-0.115,-0.075
-0.105,-0.075
-0.115,-0.075
-0.095,-0.065
-0.095,-0.065
-0.085,-0.065
-0.075,-0.065
-0.065,-0.055
-0.055,-0.065
-0.035,-0.055
-0.015,-0.065
0.005,-0.055
-0.005,-0.065
-0.015,-0.075
-0.035,-0.085
-0.045,-0.085
-0.075,-0.085
-0.085,-0.085
-0.085,-0.085
-0.095,-0.075
-0.095,-0.065
-0.105,-0.075
-0.105,-0.065
-0.095,-0.065
-0.095,-0.055
-0.105,-0.065
-0.105,-0.065
-0.105,-0.065
-0.105,-0.055
-0.105,-0.065
-0.105,-0.065
-0.105,-0.055
-0.105,-0.065
-0.105,-0.065
-0.105,-0.065
-0.095,-0.065
-0.095,-0.065
-0.095,-0.065
-0.065,-0.075
-0.065,-0.065
-0.075,-0.065
-0.075,-0.055
-0.075,-0.065
-0.065,-0.055
-0.085,-0.045
-0.095,-0.055
-0.095,-0.065
-0.095,-0.065
-0.105,-0.045
-0.105,-0.045
-0.095,-0.045
-0.085,-0.055
-0.085,-0.065
0.015,-0.055
0.455,-0.065
0.695,-0.085
0.115,-0.295
-0.225,-0.385
-0.225,-0.075
-0.195,-0.005
-0.195,-0.015
-0.155,-0.035
-0.115,-0.015
-0.105,-0.015
-0.105,-0.055
-0.115,-0.055
-0.105,-0.065
-0.105,-0.065
-0.105,-0.065
-0.095,-0.055
-0.105,-0.065
-0.105,-0.065
-0.105,-0.065
-0.095,-0.065
-0.085,-0.065
-0.085,-0.065
-0.095,-0.055
-0.095,-0.055
-0.095,-0.065
-0.075,-0.055
-0.075,-0.055
-0.075,-0.055
-0.065,-0.055
-0.065,-0.045
-0.055,-0.055
-0.045,-0.045
-0.025,-0.055
-0.015,-0.055
0.005,-0.035
0.005,-0.045
-0.005,-0.065
-0.015,-0.075
-0.045,-0.075
-0.055,-0.095
-0.055,-0.085
-0.055,-0.075
-0.075,-0.075
-0.085,-0.075
-0.095,-0.065
-0.095,-0.065
-0.095,-0.065
-0.095,-0.065
-0.095,-0.065
-0.085,-0.065
-0.085,-0.065
-0.095,-0.055
-0.085,-0.065
-0.085,-0.065
-0.105,-0.075
-0.095,-0.075
-0.085,-0.065
-0.095,-0.065
-0.085,-0.065
-0.085,-0.065
-0.075,-0.085
-0.065,-0.075
-0.055,-0.075
-0.065,-0.075
-0.065,-0.075
-0.065,-0.075
-0.065,-0.085
-0.085,-0.055
-0.095,-0.065
-0.085,-0.075
-0.085,-0.065
-0.095,-0.065
-0.085,-0.055
-0.075,-0.065
-0.075,-0.065
-0.085,-0.085
-0.015,-0.075
0.365,-0.065
0.695,-0.075
0.355,-0.245
-0.175,-0.445
-0.215,-0.215
-0.195,0.005
-0.175,-0.025
-0.155,-0.025
-0.105,-0.035
-0.095,-0.025
-0.095,-0.045
-0.095,-0.065
-0.095,-0.065
-0.095,-0.065
-0.095,-0.065
-0.085,-0.065
-0.085,-0.075
-0.085,-0.075
-0.085,-0.065
-0.085,-0.075
-0.085,-0.075
-0.085,-0.065
-0.085,-0.065
-0.085,-0.075
-0.075,-0.065
-0.075,-0.075
-0.085,-0.075
-0.075,-0.075
-0.075,-0.065
-0.065,-0.065
-0.055,-0.055
-0.045,-0.055
-0.025,-0.065
-0.025,-0.065
-0.015,-0.055
0.005,-0.065
0.015,-0.065
0.005,-0.085
-0.005,-0.095
-0.015,-0.105
-0.035,-0.105
-0.045,-0.105
-0.055,-0.105
-0.065,-0.095
-0.055,-0.095
-0.065,-0.095
-0.065,-0.095
-0.055,-0.095
-0.055,-0.085
-0.055,-0.095
-0.065,-0.095
-0.065,-0.095
-0.055,-0.095
-0.065,-0.085
-0.065,-0.095
-0.065,-0.095
-0.065,-0.095
-0.065,-0.085
-0.065,-0.095
-0.065,-0.085
-0.055,-0.095
-0.055,-0.095
-0.045,-0.105
-0.035,-0.105
-0.035,-0.095
-0.045,-0.095
-0.055,-0.085
-0.055,-0.095
-0.055,-0.085
-0.065,-0.085
-0.075,-0.095
-0.075,-0.095
-0.065,-0.075
-0.065,-0.075
-0.065,-0.085
-0.055,-0.085
-0.065,-0.085
-0.015,-0.085
0.375,-0.085
0.815,-0.075
0.445,-0.255
-0.165,-0.495
-0.215,-0.235
-0.185,0.015
-0.155,-0.035
-0.125,-0.045
-0.095,-0.035
-0.075,-0.045
-0.075,-0.055
-0.085,-0.065
-0.085,-0.075
-0.075,-0.085
-0.075,-0.075
-0.075,-0.085
-0.075,-0.075
-0.065,-0.085
-0.065,-0.085
-0.075,-0.085
-0.075,-0.095
-0.075,-0.085
-0.065,-0.075
-0.075,-0.085
-0.065,-0.085
-0.065,-0.075
-0.065,-0.075
-0.065,-0.065
-0.065,-0.065
-0.055,-0.075
-0.045,-0.065
-0.035,-0.065
-0.025,-0.065
-0.005,-0.065
0.015,-0.055
0.025,-0.055
0.035,-0.065
0.025,-0.075
0.015,-0.085
0.005,-0.095
-0.015,-0.105
-0.025,-0.105
-0.025,-0.095
-0.045,-0.085
-0.055,-0.095
-0.045,-0.095
-0.045,-0.085
-0.055,-0.095
-0.055,-0.085
-0.055,-0.085
-0.055,-0.085
-0.055,-0.085
-0.055,-0.085
-0.055,-0.085
-0.045,-0.085
-0.055,-0.085
-0.055,-0.085
-0.045,-0.085
-0.045,-0.075
-0.045,-0.085
-0.045,-0.095
-0.015,-0.105
-0.015,-0.085
-0.025,-0.085
-0.035,-0.085
-0.035,-0.095
-0.035,-0.075
-0.045,-0.075
-0.055,-0.085
-0.055,-0.075
-0.055,-0.065
-0.045,-0.065
-0.045,-0.075
-0.035,-0.085
-0.035,-0.075
-0.005,-0.075
0.335,-0.085
0.855,-0.075
0.625,-0.215
-0.015,-0.495
-0.205,-0.345
-0.175,0.015
-0.145,-0.005
-0.125,-0.025
-0.075,-0.025
-0.065,-0.025
-0.055,-0.045
-0.065,-0.065
-0.055,-0.075
-0.055,-0.085
-0.055,-0.075
-0.065,-0.075
-0.065,-0.075
-0.055,-0.075
-0.055,-0.075
-0.055,-0.075
-0.055,-0.085
-0.055,-0.085
-0.055,-0.075
-0.055,-0.075
-0.055,-0.085
-0.055,-0.075
-0.045,-0.075
-0.045,-0.065
-0.045,-0.065
-0.035,-0.075
-0.025,-0.065
-0.015,-0.065
-0.015,-0.065
0.005,-0.065
0.015,-0.065
0.035,-0.065
0.045,-0.065
0.035,-0.085
0.035,-0.065
0.015,-0.085
0.005,-0.085
-0.015,-0.085
-0.025,-0.085
-0.035,-0.085
-0.035,-0.085
-0.045,-0.075
-0.035,-0.085
-0.045,-0.075
-0.045,-0.075
-0.045,-0.085
-0.045,-0.075
-0.045,-0.085
-0.045,-0.075
-0.045,-0.075
-0.045,-0.085
-0.045,-0.085
-0.055,-0.075
-0.045,-0.085
-0.035,-0.065
-0.045,-0.075
-0.035,-0.085
-0.025,-0.095
-0.015,-0.095
-0.005,-0.085
-0.025,-0.085
-0.025,-0.085
-0.025,-0.085
-0.025,-0.075
-0.035,-0.065
-0.035,-0.085
-0.045,-0.075
-0.045,-0.075
-0.045,-0.055
-0.045,-0.065
-0.035,-0.065
-0.035,-0.065
-0.035,-0.065
0.085,-0.065
0.595,-0.075
0.805,-0.095
0.165,-0.345
-0.205,-0.415
-0.185,-0.055
-0.155,0.025
-0.135,-0.015
-0.095,-0.025
-0.065,-0.025
-0.065,-0.025
-0.055,-0.045
-0.055,-0.065
-0.065,-0.075
-0.065,-0.075
-0.055,-0.065
-0.065,-0.075
-0.055,-0.075
-0.065,-0.075
-0.065,-0.075
-0.065,-0.075
-0.065,-0.075
-0.055,-0.075
-0.055,-0.065
-0.055,-0.075
-0.055,-0.075
-0.055,-0.075
-0.055,-0.065
-0.055,-0.065
-0.045,-0.065
-0.035,-0.065
-0.025,-0.055
-0.005,-0.065
0.005,-0.065
0.015,-0.065
0.035,-0.055
0.035,-0.075
0.035,-0.075
0.015,-0.075
0.005,-0.085
-0.005,-0.095
-0.025,-0.095
-0.035,-0.085
-0.055,-0.085
-0.055,-0.075
-0.055,-0.065
-0.055,-0.075
-0.065,-0.075
-0.055,-0.075
-0.045,-0.075
-0.055,-0.075
-0.055,-0.065
-0.055,-0.075
-0.055,-0.075
